24.99582832102417;0.00025
24.991656647009076;0.0005
24.99748497791544;0.00075
24.993313313703986;0.001
24.997441654335468;0.00125
25.00326999977059;0.0015
25.0040983499701;0.00175
25.00992670489471;0.002
25.009155064505165;0.00225
25.013283428762193;0.0025
25.015811797626522;0.00275
25.013240171058882;0.003
25.01406854902001;0.00325
25.018296931470623;0.0035
25.02072531837146;0.00375
25.01655370968325;0.004
25.01738210536672;0.00425
25.024910505382614;0.0045
25.022438909691644;0.00475
25.01656731825455;0.005
25.020695731032056;0.00525
25.049924147984907;0.0055
25.050752569073815;0.00575
25.08658099425952;0.006
25.08900942350276;0.00625
25.103237856764263;0.0065
25.104066294004745;0.00675
25.08489473518495;0.007
25.084023180265607;0.00725
25.049851629207453;0.0075
25.0489800819712;0.00775
24.993208538517607;0.008
24.99233699880738;0.00825
24.96816546280126;0.0085
24.968993930459987;0.00875
24.89652240174428;0.009
24.887350876614875;0.00925
24.719779355032507;0.0095
24.7240078369579;0.00975
24.869836322351794;0.01
24.877264811174914;0.01025
25.054793303388003;0.0105
25.09232179895178;0.01075
25.038150297826984;0.011
25.025578799974348;0.01125
25.06140730535461;0.0115
25.053935813928486;0.01175
25.029764325656725;0.012
25.052292840500055;0.01225
25.109721358419204;0.0125
25.11554987937491;0.01275
25.1413784033279;0.013
25.168906930238922;0.01325
25.13643546006869;0.0135
25.135563992777954;0.01375
25.06469252832744;0.014
25.16892106667788;0.01425
24.94634960779001;0.0145
25.318878151624574;0.01475
24.82640669814229;0.015
24.8022352473039;0.01525
25.06806379907014;0.0155
25.04389235340174;0.01575
25.00132091025944;0.016
25.017149469603975;0.01625
25.129678031396075;0.0165
25.135506595596485;0.01675
25.07463516216593;0.017
25.07716373106515;0.01725
25.11299230225488;0.0175
25.11382087569586;0.01775
25.119649451348813;0.018
25.1187780291745;0.01825
25.108006609133636;0.0185
25.105435191186967;0.01875
25.111263775295225;0.019
25.10709236141915;0.01925
25.117920949519473;0.0195
25.120449539556944;0.01975
25.159578131492296;0.02
25.163806725286257;0.02025
25.222935320899577;0.0205
25.22546391829299;0.02075
25.184592517427237;0.021
25.18712111826305;0.02125
25.381249720761176;0.0215
25.24537832488235;0.02175
25.132906930587303;0.022
25.24373553783679;0.02225
25.45956414659155;0.0225
25.408692756812304;0.02275
25.22792136845981;0.023
25.220349981494802;0.02325
25.111178595878027;0.0235
25.112007211570216;0.02375
25.156235828532107;0.024
25.16366444672446;0.02425
25.074493066108;0.0245
25.068721686643478;0.02475
24.99785030829163;0.025
25.0336789310132;0.02525
24.987807554768935;0.0255
24.98363617951956;0.02575
24.95116480522584;0.026
24.963693431848508;0.02625
25.02112205934832;0.0265
25.026950687685996;0.02675
25.077779316822294;0.027
25.078607946717963;0.02725
25.047836577333744;0.0275
25.035265208630374;0.02775
25.054493840568597;0.028
25.055322473109175;0.02825
25.024451106212837;0.0285
25.026979739840343;0.02875
25.017808373952434;0.029
25.02693700850984;0.02925
25.046065643473334;0.0295
25.048594278803648;0.02975
25.056122914461533;0.03
25.05355155040773;0.03025
25.064380186602996;0.0305
25.065208823008078;0.03075
25.056037459583717;0.031
25.055266096290676;0.03125
25.062694733089693;0.0315
25.065223369941517;0.03175
25.0760520068069;0.032
25.076880643646597;0.03225
25.08440928042135;0.0325
25.086837917091913;0.03275
25.101066553619045;0.033
25.101895189963482;0.03325
25.112723826085983;0.0335
25.1168524619473;0.03375
25.10598109750819;0.034
25.106809732729403;0.03425
25.097638367571687;0.0345
25.096867001995804;0.03475
25.090995635962496;0.035
25.096824269432524;0.03525
25.142652902366642;0.0355
25.145181534725612;0.03575
25.202610166470173;0.036
25.205138797561084;0.03625
25.010967427959116;0.0365
24.99509605762501;0.03675
24.652624686519523;0.037
24.650153314603422;0.03725
24.85928194183745;0.0375
24.87511056818238;0.03775
25.144239193598956;0.038
25.15346781804795;0.03825
25.25589644149011;0.0385
25.228425063886196;0.03875
25.16755368519697;0.039
25.220082305383187;0.03925
25.127610924405616;0.0395
25.123439542225015;0.03975
25.087568158802135;0.04
25.115096774097758;0.04025
25.195925388072624;0.0405
25.196754000687502;0.04075
25.14088261190316;0.041
25.140011221680364;0.04125
25.107539829979864;0.0415
25.11336843676243;0.04175
25.140897041988826;0.042
25.141725645619818;0.04225
25.09915424761617;0.0425
25.101682847938648;0.04275
25.129211446548005;0.043
25.13164004340503;0.04325
25.14916863847048;0.0435
25.14999723170512;0.04375
25.159125823069722;0.044
25.158354412525043;0.04425
25.167483000031858;0.0445
25.165011585550943;0.04475
25.174140169043053;0.045
25.17166875046897;0.04525
25.177497329789453;0.0455
25.179925906965288;0.04575
25.204154481957232;0.046
25.206583054726057;0.04625
25.23911162523254;0.0465
25.239940193437455;0.04675
25.25906875930157;0.047
25.253297322785656;0.04725
25.115725883850505;0.0475
25.179954442456868;0.04775
25.290782998565525;0.048
25.30161155213726;0.04825
25.44244010313284;0.0485
25.38656865151304;0.04875
25.262397197238652;0.049
25.259925740270432;0.04925
25.285754280569172;0.0495
25.28988281809564;0.04975
25.204011352810628;0.05
25.2165398846749;0.05025
25.199068413649247;0.0505
25.194896939694438;0.05075
25.110725462771267;0.051
25.109853982840498;0.05125
25.138982499862927;0.0515
25.139811013799324;0.05175
25.149039524610487;0.052
25.144868032257186;0.05225
25.13729653670021;0.0525
25.138125037900338;0.05275
25.132353535818353;0.053
25.134782030415053;0.05325
25.140610521651215;0.0535
25.141439009487616;0.05375
25.14726749388506;0.054
25.15149597480432;0.05425
25.145624452206192;0.0545
25.14145292605147;0.05475
25.190581396300924;0.055
25.194809862915356;0.05525
25.29723832585555;0.0555
25.2880667850823;0.05575
25.080595240556402;0.056
25.229723692238636;0.05625
25.273952140089804;0.0565
25.274780584070687;0.05675
25.23720902414209;0.057
25.234737460264803;0.05725
25.182265892399613;0.0575
25.181394320507323;0.05775
25.152222744548723;0.058
25.15475116448462;0.05825
25.145579580275793;0.0585
25.148007991883052;0.05875
25.14053639926719;0.059
25.141364802389006;0.05925
25.147193201209298;0.0595
25.14972159568886;0.05975
25.160549985788506;0.06
25.157978371469028;0.06025
25.168806752691218;0.0605
25.17133512941589;0.06075
25.162163501603857;0.061
25.16629186921589;0.06125
25.148820232212817;0.0615
25.149648590555437;0.06175
25.09717694420455;0.062
25.096305293120963;0.06225
25.07883363726548;0.0625
25.094661976598918;0.06275
25.13379031108207;0.063
25.137918640675757;0.06325
25.172146965340776;0.0635
25.17627528503794;0.06375
25.18880359972806;0.064
25.177931909371935;0.06425
25.1620602139304;0.0645
25.166288513364247;0.06475
25.1721168076343;0.065
25.171245096701355;0.06525
25.187073380526236;0.0655
25.189601659069762;0.06575
25.202029932292742;0.066
25.199558200155984;0.06625
25.20538646262032;0.0665
25.202914719646554;0.06675
25.21034297119551;0.067
25.209571217227996;0.06725
25.215399457704844;0.0675
25.212827692586863;0.06775
25.228655921834875;0.068
25.23118414540971;0.06825
25.247012363272177;0.0685
25.2478405753831;0.06875
25.263668781703302;0.069
25.26119698219361;0.06925
25.24202517681485;0.0695
25.23945336552783;0.06975
25.140281548293398;0.07
25.137809725072362;0.07025
25.108637895825563;0.0705
25.12276606051382;0.07075
25.193594219097957;0.071
25.196122371538813;0.07125
25.240250517797207;0.0715
25.24107865783398;0.07175
25.270306791609954;0.072
25.267734919085967;0.07225
25.298563040222838;0.0725
25.294391154981422;0.07275
25.251919263322538;0.073
25.272747365207017;0.07325
25.3035754605957;0.0735
25.314403549449427;0.07375
25.296931631729024;0.074
25.291059707395345;0.07425
25.201887776409205;0.0745
25.476015838731463;0.07475
25.041843894322945;0.075
25.036071943144496;0.07525
25.168499985156956;0.0755
25.176028020321173;0.07575
25.281856048597984;0.076
25.28098406994823;0.07625
25.288512084332755;0.0765
25.28264009171241;0.07675
25.26846809204803;0.077
25.26769608530047;0.07725
25.278524071430567;0.0775
25.277652050399183;0.07775
25.283480022167158;0.078
25.28430798669534;0.07825
25.276835943944576;0.0785
25.28096389387573;0.07875
25.273491836449637;0.079
25.272619771627166;0.07925
25.263447699369152;0.0795
25.27097561963646;0.07975
25.296803532389944;0.08
25.289231437590452;0.08025
25.300059335198853;0.0805
25.30258722517599;0.08075
25.298415107482732;0.081
25.29924298207993;0.08125
25.296770848928446;0.0815
25.29759870798914;0.08175
25.361726559222866;0.082
25.319254402590502;0.08225
25.201682238052893;0.0825
25.234210065570913;0.08275
25.323337885105428;0.083
25.33086569661729;0.08325
25.384993500067377;0.0835
25.350821295416544;0.08375
25.18664908262567;0.084
25.177476861655617;0.08425
25.120004632467257;0.0845
25.18413239502146;0.08475
25.27166014927909;0.085
25.27418789520103;0.08525
25.33661563274814;0.0855
25.3374433618813;0.08575
25.27997108256138;0.086
25.279098794749267;0.08625
25.23662649840582;0.0865
25.22075419349192;0.08675
25.27158187996845;0.087
25.292409557796283;0.08725
25.249937226936304;0.0875
25.300764887349388;0.08775
25.254892538996412;0.088
25.267420181838272;0.08825
25.318247815835832;0.0885
25.31577544094999;0.08875
25.263203057141617;0.089
25.26243066437161;0.08925
25.24825826260085;0.0895
25.260685851790228;0.08975
25.163213431900623;0.09
25.16404100289293;0.09025
25.23816856472804;0.0905
25.242396117366837;0.09075
25.316523660770223;0.091
25.310651194899066;0.09125
25.253178719714292;0.0915
25.27570623517677;0.09175
25.341533741247403;0.092
25.347361237887092;0.09225
25.53818872505673;0.0925
25.45561620271721;0.09275
25.206443670829437;0.093
25.358971129354305;0.09325
25.403098578252713;0.0935
25.40392601748557;0.09375
25.429753447013777;0.094
25.435580866798226;0.09425
25.33640827679983;0.0945
25.327235676979498;0.09475
25.226463067298127;0.095
25.238890447716624;0.09525
25.3164178181959;0.0955
25.32224517869686;0.09575
25.386372529180424;0.096
25.388899869607492;0.09625
25.41302719993898;0.0965
25.415554520135792;0.09675
25.408081830158856;0.097
25.408909129969075;0.09725
25.373036419527367;0.0975
25.370563698794655;0.09775
25.32639096773184;0.098
25.327218226299856;0.09825
25.27634547445961;0.0985
25.275472712172032;0.09875
25.306299939398038;0.099
25.308827156098552;0.09925
25.22295436223449;0.0995
25.213781557766783;0.09975
25.09300874265636;0.1
25.10543591686413;0.10025
25.194663080351035;0.1005
25.200490233078;0.10075
25.32631737500595;0.101
25.332144506095823;0.10125
25.41297162630853;0.1015
25.415398735605024;0.10175
25.447925833946236;0.102
25.43705292129308;0.10225
25.346279997606516;0.1025
25.38370706284746;0.10275
25.33953411697686;0.103
25.338761159955652;0.10325
25.317888191744775;0.1035
25.345415212305156;0.10375
25.442842221597758;0.104
25.447069219583504;0.10425
25.474496206223346;0.1045
25.465323181478226;0.10475
25.33955014530909;0.105
25.30537709767688;0.10525
25.42620403854255;0.1055
25.220330967867035;0.10575
25.5178578856113;0.106
25.67368479173629;0.10625
25.061111686202942;0.1065
25.24033856897223;0.10675
25.327765440005088;0.107
25.33529229926248;0.10725
25.447819146705363;0.1075
25.46864598229469;0.10775
25.39947280599142;0.108
25.393599617756504;0.10825
25.362726417550906;0.1085
25.38355320533559;0.10875
25.406079981071525;0.109
25.410206744719655;0.10925
25.406033496240955;0.1095
25.410260235596382;0.10975
25.404386962746912;0.11
25.401913677653507;0.11025
25.40774038027713;0.1105
25.40186707057876;0.11075
25.407693748519357;0.111
25.4052204140599;0.11125
25.39434706716136;0.1115
25.395173707784707;0.11175
25.372700335890922;0.112
25.373526951440972;0.11225
25.364353554395844;0.1125
25.373480144716503;0.11275
25.409306722363933;0.113
25.411833287299118;0.11325
25.435959839483033;0.1135
25.418486378876672;0.11375
25.294312905441;0.114
25.293439419137023;0.11425
25.355965919925705;0.1145
25.35179240776805;0.11475
25.287618882625033;0.115
25.295045344457648;0.11525
25.35587179322689;0.1155
25.360098228893744;0.11575
25.429224651419204;0.116
25.430051060764267;0.11625
25.440877456889915;0.1165
25.411703839757156;0.11675
25.450830209326988;0.117
25.4533565655604;0.11725
25.515882908418398;0.1175
25.523309237861977;0.11775
25.467535553852144;0.118
25.461661856349902;0.11825
25.682488145316245;0.1185
25.62501442071219;0.11875
25.43744068249874;0.119
25.47496693063689;0.11925
25.759093165087663;0.1195
25.75161938581207;0.11975
25.587445592771108;0.12
25.5799717859258;0.12025
25.452397965237154;0.1205
25.446624130666187;0.12075
25.420750282173916;0.121
25.429876419721353;0.12125
25.422402543269516;0.1215
25.42322865277943;0.12175
25.39905474821211;0.122
25.39658082952857;0.12225
25.369006896689847;0.1225
25.371532949656952;0.12275
25.362358988390927;0.123
25.363185012852785;0.12325
25.34231102300355;0.1235
25.343137018804267;0.12375
25.35566300021595;0.124
25.353188967199635;0.12425
25.35901491971636;0.1245
25.353140857727148;0.12475
25.33726678119304;0.125
25.339792690075072;0.12525
25.35231858433427;0.1255
25.3531444639317;0.12575
25.362270328828373;0.126
25.36139617898534;0.12625
25.368922014363648;0.1265
25.36974783492433;0.12675
25.367273640628444;0.127
25.369699431437024;0.12725
25.36222520731112;0.1275
25.36475096821178;0.12775
25.353876714100053;0.128
25.351402444936998;0.12825
25.36552816068366;0.1285
25.366353861301093;0.12875
25.373879546750352;0.129
25.376305216992485;0.12925
25.362130871988555;0.1295
25.361356511699626;0.12975
25.345482136086755;0.13
25.348007745110998;0.13025
25.34043333873342;0.1305
25.346258916915083;0.13075
25.363784479617053;0.131
25.3663100268004;0.13125
25.377135558426186;0.1315
25.377961074455474;0.13175
25.400386574849342;0.132
25.401212059568863;0.13225
25.420437528575107;0.1325
25.422862981829134;0.13275
25.435388419292046;0.133
25.4345138409249;0.13325
25.437039246688776;0.1335
25.437864636544752;0.13375
25.426990010453917;0.134
25.429515368377338;0.13425
25.452040710276112;0.1345
25.45616603611132;0.13475
25.530291345844045;0.135
25.554516639435363;0.13525
25.48194191684638;0.1355
25.469467178038183;0.13575
25.085292422971854;0.136
25.00941765160848;0.13625
25.123642863909176;0.1365
25.136068059835015;0.13675
25.463593239347105;0.137
25.47771840240654;0.13725
25.713543548974414;0.1375
25.72606867901184;0.13775
25.49689379247991;0.138
25.507718889339728;0.13825
25.60184396955239;0.1385
25.54606903307902;0.13875
25.628494079880706;0.139
25.62771910991857;0.13925
25.56684412315372;0.1395
25.592669119547253;0.13975
25.635194099060303;0.14
25.671019061653958;0.14025
25.601844007289355;0.1405
25.612668935927598;0.14075
25.605093847529822;0.141
25.604318742057117;0.14125
25.436743619470626;0.1415
25.42756847973147;0.14175
25.460093322800756;0.142
25.464218148639628;0.14225
25.4967429572092;0.1425
25.4992677484706;0.14275
25.476692522384965;0.143
25.469217278913423;0.14325
25.503342018017094;0.1435
25.504166739657126;0.14375
25.608391443794645;0.144
25.599216130390786;0.14425
25.38504079940669;0.1445
25.53586545080349;0.14475
25.596690084542345;0.145
25.600814700584376;0.14525
25.56833929889073;0.1455
25.567463879422547;0.14575
25.479988442140993;0.146
25.475812987007192;0.14625
25.384937513982305;0.1465
25.384062023027475;0.14675
25.326586514103866;0.147
25.324110987172617;0.14725
25.288235442194892;0.1475
25.30075987913184;0.14775
25.386584297944623;0.148
25.39070869859439;0.14825
25.426533081042315;0.1485
25.42565744524955;0.14875
25.453181791177265;0.149
25.455706118786615;0.14925
25.493130428038782;0.1495
25.493954718894912;0.14975
25.463178991316187;0.15
25.47730324526378;0.15025
25.511427480698856;0.1505
25.51225169758259;0.15075
25.524775895876154;0.151
25.51730007554073;0.15125
25.414724236537495;0.1515
25.68054837882762;0.15175
25.259772502372293;0.152
25.2505966071327;0.15225
25.349720693070015;0.1525
25.357244760145434;0.15275
25.48466880832013;0.153
25.488892837555298;0.15325
25.509716847812122;0.1535
25.50884083905181;0.15375
25.492964811235538;0.154
25.49048876432451;0.15425
25.50631269827991;0.1545
25.50383661306295;0.15475
25.512960508634812;0.155
25.510484384956715;0.15525
25.49960824198984;0.1555
25.502132079695404;0.15575
25.494555898034612;0.156
25.495379696968666;0.15625
25.49290347645877;0.1565
25.492027236466143;0.15675
25.501250976951987;0.157
25.49867469787752;0.15725
25.502898399203946;0.1575
25.503722080892498;0.15775
25.507845742904376;0.158
25.506969385200808;0.15825
25.516193007743013;0.1585
25.518616610492206;0.15875
25.57944019340961;0.159
25.581963756456467;0.15925
25.42278729959398;0.1595
25.440310822783395;0.15975
25.489434325985933;0.16
25.493557809162823;0.16025
25.527781272275305;0.1605
25.5286047152846;0.16075
25.534428138151956;0.161
25.53525154083861;0.16125
25.531074923305795;0.1615
25.53019828551475;0.16175
25.536021627426724;0.162
25.53514494900295;0.16225
25.530968250204683;0.1625
25.53179153099317;0.16275
25.529314791329647;0.163
25.533438031175375;0.16325
25.52596125049161;0.1635
25.531784449239584;0.16375
25.527607627380576;0.164
25.535130784875832;0.16425
25.530953921686603;0.1645
25.53677703777416;0.16475
25.54090013309976;0.165
25.538423207624657;0.16525
25.54424626131013;0.1655
25.545069294117425;0.16575
25.542492306007837;0.166
25.548315296942608;0.16625
25.544138266883028;0.1665
25.55166121579036;0.16675
25.54918414362588;0.167
25.551607050350864;0.16725
25.557429935926585;0.1675
25.558252800314335;0.16775
25.55577564347538;0.168
25.556598465371007;0.16825
25.5624212659625;0.1685
25.561544045211146;0.16875
25.55736680307823;0.169
25.55988953952504;0.16925
25.55741225451287;0.1695
25.561534948003008;0.16975
25.559057619956754;0.17
25.56318027033539;0.17025
25.560702899100235;0.1705
25.564825506212557;0.17075
25.560648091633688;0.171
25.566470655324913;0.17125
25.562293197247538;0.1715
25.568115717362865;0.17175
25.565638215632212;0.172
25.57146069201687;0.17225
25.567283146478175;0.1725
25.56810557897741;0.17275
25.563927989475914;0.173
25.566350377934988;0.17325
25.55717274431594;0.1735
25.561395088580117;0.17375
25.55881741068882;0.174
25.558039710603374;0.17425
25.5638619882851;0.1745
25.56128424369533;0.17475
25.567106476795395;0.175
25.567928687546612;0.17525
25.58545087591032;0.1755
25.58797304184784;0.17575
25.603795185320525;0.176
25.6079173062897;0.17625
25.602039404716702;0.1765
25.602861480562872;0.17675
25.647083533789548;0.177
25.649505564358087;0.17725
25.66032757222981;0.1775
25.649549557366083;0.17775
25.66197151972824;0.178
25.65619345927764;0.17825
25.647015375975634;0.1785
25.661137269783566;0.17875
25.641959140662806;0.179
25.636080988574697;0.17925
25.471902813480604;0.1795
25.46442461534189;0.17975
25.33854639411991;0.18
25.359368149776028;0.18025
25.286889882271613;0.1805
25.28441159156803;0.18075
25.42353327762665;0.181
25.43105494040885;0.18125
25.540176579875983;0.1815
25.54599819598944;0.18175
25.6585197887106;0.182
25.664341358000826;0.18225
25.738462903821507;0.1825
25.789284426134017;0.18275
25.730105924899753;0.183
25.752627400080087;0.18325
25.70004885163641;0.1835
25.699270279530108;0.18375
25.741691683722575;0.184
25.74251306417521;0.18425
25.796734420849393;0.1845
25.780855753706525;0.18475
25.673377062708003;0.185
25.672498347815228;0.18525
25.5700196089896;0.1855
25.565840846192522;0.18575
25.451662059385402;0.186
25.462483248529637;0.18625
25.55160441358665;0.1865
25.585725554517836;0.18675
25.509946671284617;0.187
25.50076776384841;0.18725
25.549888832170616;0.1875
25.552409876212657;0.18775
25.639830895935965;0.188
25.64565189130195;0.18825
25.716472862272035;0.1885
25.70569380880765;0.18875
25.599814730870214;0.189
25.613935628421157;0.18925
25.674756501421925;0.1895
25.673977349833926;0.18975
25.57979817361861;0.19
25.570618972737407;0.19025
25.636439747151755;0.1905
25.6455604968231;0.19075
25.729681221712866;0.191
25.732201921782526;0.19125
25.8597225969935;0.1915
25.813843247307233;0.19175
25.559663872685192;0.192
25.572184473088818;0.19225
25.958005048479563;0.1925
25.932125598818885;0.19275
25.38124612406824;0.193
25.648766624189086;0.19325
25.596287099142877;0.1935
25.605407548891087;0.19375
25.686227973395166;0.194
25.692048372616586;0.19425
25.72616874651682;0.1945
25.70198909505733;0.19475
25.811209418199592;0.195
25.828629715905084;0.19525
25.801149988135272;0.1955
25.75867023485163;0.19575
25.84449045601565;0.196
25.948610651588805;0.19625
25.77943082153258;0.1965
25.691950965808456;0.19675
25.916071084377926;0.197
25.93019117720248;0.19725
26.027711244243598;0.1975
25.940231285462783;0.19775
25.786051300821526;0.198
25.781871290281316;0.19825
25.69769125380366;0.1985
25.69851119135006;0.19875
25.712631102882018;0.199
25.713450988361032;0.19925
25.70597084774861;0.1995
25.70679068100626;0.19975
25.667610488095487;0.2
25.668430268977822;0.20025
25.649250023614755;0.2005
25.651669751967813;0.20075
25.62748945399852;0.201
25.62830912966838;0.20125
25.62082877893893;0.2015
25.62494840177169;0.20175
25.619167998128173;0.202
25.623287567969925;0.20225
25.61910711125846;0.2025
25.619926627955316;0.20275
25.624046118022033;0.203
25.62486558142014;0.20325
25.60908501811117;0.2035
25.609904428056666;0.20375
25.61572381121818;0.204
25.61654316755724;0.20425
25.622362497035393;0.2045
25.623181799614198;0.20475
25.629001075255193;0.205
25.628120323919934;0.20525
25.620639545569972;0.2055
25.623058740166865;0.20575
25.613877907672173;0.206
25.616397048047446;0.20625
25.62721616125426;0.2065
25.624735247254165;0.20675
25.628854306008733;0.207
25.631373337479527;0.20725
25.627192341628117;0.2075
25.62961131841608;0.20775
25.635430267804985;0.208
25.63464918975641;0.20825
25.64046808423193;0.2085
25.63788695119312;0.20875
25.645405790601572;0.209
25.64452460241887;0.20925
25.642043386606588;0.2095
25.646162143126315;0.20975
25.650380871939657;0.21
25.652799573008195;0.21025
25.65031824629351;0.2105
25.65443689175722;0.21075
25.658655509360912;0.211
25.65607409906619;0.21125
25.661892660834646;0.2115
25.661111194627896;0.21175
25.666929700407543;0.212
25.666048178135185;0.21225
25.66186662777245;0.2125
25.664385049280945;0.21275
25.66020344262227;0.213
25.664321807758064;0.21325
25.658440144649926;0.2135
25.660958453259486;0.21375
25.668476733548367;0.214
25.66929498547819;0.21425
25.68011320901059;0.2145
25.680931404107177;0.21475
25.688349570729613;0.215
25.689167708839502;0.21525
25.696685818398493;0.2155
25.697503899368222;0.21575
25.708321951710328;0.216
25.707439975386457;0.21625
25.718257970358238;0.2165
25.717475936587334;0.21675
25.723293874035377;0.217
25.724111782664032;0.21725
25.731529662434948;0.2175
25.732347513309772;0.21775
25.70986533525016;0.218
25.710683128217777;0.21825
25.721500892174287;0.2185
25.722318627081346;0.21875
25.731436332900614;0.219
25.72895400959377;0.21925
25.711471657122473;0.2195
25.712289275448402;0.21975
25.69810686453322;0.22
25.697224424338614;0.22025
25.706341954826264;0.2205
25.70715945595783;0.22075
25.724676927695008;0.221
25.72549436999948;0.22125
25.731311782832943;0.2215
25.732129166157073;0.22175
25.726246519933554;0.222
25.730463844124095;0.22225
25.71788113869038;0.2225
25.71869840359411;0.22275
25.706215638796987;0.223
25.707032844260702;0.22325
25.714550019946973;0.2235
25.7169671658175;0.22375
25.731184281833986;0.224
25.732001367958148;0.22425
25.737818424151687;0.2245
25.73523545037633;0.22475
25.722752446593788;0.225
25.72186941276578;0.22525
25.712686348854035;0.2255
25.71350325482026;0.22575
25.729320130626192;0.226
25.73183697623356;0.22625
25.747653791604083;0.2265
25.7484705766995;0.22675
25.764287331481555;0.227
25.763404055911963;0.22725
25.77422074995248;0.2275
25.77343741356484;0.22775
25.77925404671079;0.228
25.778370649352063;0.22825
25.755887221450422;0.2285
25.756703762967618;0.22875
25.74752027386539;0.229
25.74993675410549;0.22925
25.76745320364969;0.2295
25.769969622459733;0.22975
25.780786010497394;0.23
25.783202367724424;0.23025
25.7990186941026;0.2305
25.799834989593677;0.23075
25.77905125415944;0.231
25.77816748776165;0.23125
25.71398369036208;0.2315
25.711499861922512;0.23175
25.735616002404722;0.232
25.73813211177049;0.23225
25.768948189981604;0.2325
25.771364236999847;0.23275
25.788880252787006;0.233
25.789696237304874;0.23325
25.787212190515238;0.2335
25.791328112379897;0.23375
25.805444002860646;0.234
25.80625986191929;0.23425
25.832075689517623;0.2345
25.836291485617448;0.23475
25.87370725018058;0.235
25.882922983168818;0.23525
25.852038684543974;0.2355
25.837854354267865;0.23575
25.73866999230231;0.236
25.80118559860911;0.23625
25.968601173150105;0.2365
25.982816715887097;0.23675
26.06693222678193;0.237
26.017747705796417;0.23725
25.89356315289239;0.2375
25.92437856803169;0.23775
25.865193951176135;0.238
25.861009302287563;0.23825
25.845124621327827;0.2385
25.85593990825876;0.23875
25.806755163042197;0.239
25.79757038563999;0.23925
25.760085576013985;0.2395
25.770900734126037;0.23975
25.815015859937983;0.24
25.819230953411704;0.24025
25.801646014509025;0.2405
25.80086104319183;0.24075
25.783276039421967;0.241
25.782491003161308;0.24125
25.82660593437171;0.2415
25.829120833015054;0.24175
25.8949356990532;0.242
25.894050532448023;0.24225
25.621565333161403;0.2425
25.603980101155216;0.24275
25.359794836391337;0.243
25.369009538831662;0.24325
25.58142420843806;0.2435
25.592238845172428;0.24375
25.726453448996658;0.244
25.73386801987263;0.24425
25.818082557762253;0.2445
25.76719706262741;0.24475
25.839711534430013;0.245
25.85212597313195;0.24525
25.746340378695145;0.2455
25.735454751081488;0.24575
25.787969090252886;0.246
25.792083396171265;0.24625
25.872897668798522;0.2465
25.860411908096587;0.24675
25.934526114027364;0.247
25.940340286552782;0.24725
26.001154425634766;0.2475
26.003668531235242;0.24775
25.914482603316134;0.248
25.825296641839373;0.24825
25.90611064676689;0.2485
26.060224618060623;0.24875
25.559338555682512;0.249
25.555152459594495;0.24925
25.61436632975851;0.2495
25.618480166136507;0.24975
25.665993968690433;0.25
25.92510773738223;0.25025
25.969221472173864;0.2505
25.766735173027275;0.25075
25.75924883990443;0.251
25.79336247276728;0.25125
25.799176071577797;0.2515
26.086689636297944;0.25175
26.117503166889676;0.252
25.968316663314983;0.25225
25.949130125535813;0.2525
25.818243553514154;0.25275
25.899056947211978;0.253
25.816570306591267;0.25325
25.808983631613994;0.2535
25.86319692224216;0.25375
25.86731017843774;0.254
25.913123400162718;0.25425
25.8522365873791;0.2545
25.88644974004886;0.25475
25.890562858134015;0.255
25.95467594159655;0.25525
25.963888990398473;0.2555
25.924702004501782;0.25575
25.918814983868486;0.256
25.847927928460592;0.25625
25.872140838240117;0.2565
25.854553713169068;0.25675
25.857066553209464;0.257
25.839579358323324;0.25725
25.84369212847267;0.2575
25.691204863619518;0.25775
25.9470175637259;0.258
25.654430228753853;0.25825
25.668642858665397;0.2585
25.819455453422563;0.25875
25.82356801298739;0.259
25.77268053732193;0.25925
25.806893026388206;0.2595
25.884305480148264;0.25975
25.886817898564168;0.26
25.909330281597946;0.26025
25.910142629211652;0.2605
25.939254941367345;0.26075
25.940067218027085;0.261
25.832579459152928;0.26125
25.82669166470693;0.2615
25.790803834651165;0.26175
25.80831596894769;0.262
25.869128067558574;0.26225
25.873240130445893;0.2625
25.890752157571725;0.26275
25.889864148898134;0.263
25.88067610438721;0.26325
25.883188024001033;0.2635
25.877299907701683;0.26375
25.87981175545125;0.264
25.87562356721182;0.26425
25.878135342945487;0.2645
25.882247082614352;0.26475
25.879758786180496;0.265
25.895570453606034;0.26525
25.924682084853067;0.2655
25.81049367988369;0.26575
25.79800523866002;0.266
25.82881676114416;0.26625
25.829628247298224;0.2665
25.870439697084333;0.26675
25.86955111046459;0.267
25.878662487401137;0.26725
25.87947382785608;0.2675
25.87528513179155;0.26775
25.877796399169675;0.268
25.873607629952584;0.26825
25.869418824102418;0.2685
25.875229981581295;0.26875
25.876041102351373;0.269
25.871852186374788;0.26925
25.875963233613668;0.2695
25.87177424403018;0.26975
25.87258521758647;0.27
25.878396154244673;0.27025
25.875907053966955;0.2705
25.881717916715477;0.27075
25.882528742452394;0.271
25.880039531139865;0.27125
25.884150282740055;0.2715
25.87996099721514;0.27175
25.885771674527277;0.272
25.88158231463865;0.27225
25.882392917511424;0.2725
25.88820348310778;0.27275
25.8857140113899;0.273
25.889824502319975;0.27325
25.890634955860175;0.2735
25.888145371972698;0.27375
25.888955750619733;0.274
25.896366091763475;0.27425
25.892176395366118;0.2745
25.897986661389858;0.27475
25.89879688979691;0.275
25.896307080549455;0.27525
25.898817233609734;0.2755
25.902927348939926;0.27575
25.903737426502254;0.276
25.899547466258927;0.27625
25.89865746817218;0.2765
25.906167432204214;0.27675
25.908677358317263;0.277
25.906087246473554;0.27725
25.905297096635305;0.2775
25.911106908764758;0.27775
25.90691668282414;0.278
25.911026418775688;0.27825
25.906836116581637;0.2785
25.912645776204243;0.27875
25.91015539760575;0.279
25.90596498074838;0.27925
25.910074525594407;0.2795
25.905884032106076;0.27975
25.90839350024565;0.28
25.914202929975378;0.28025
25.91331232125752;0.2805
25.91912167405435;0.28075
25.91493098832811;0.281
25.922440264041104;0.28125
25.926549501155577;0.2815
25.922358699633815;0.28175
25.923167859438088;0.282
25.932276980530684;0.28225
25.934786062873883;0.2825
25.932295106429965;0.28275
25.93470411116122;0.283
25.938913077029945;0.28325
25.93802200399843;0.2835
25.93053089202897;0.28375
25.934639741083863;0.284
25.928748551125416;0.28425
25.929557322115926;0.2845
25.9353660540177;0.28475
25.937874746793057;0.285
25.935383400404312;0.28525
25.937792014813763;0.2855
25.948600589983748;0.28575
25.946109125876568;0.286
25.953617622454566;0.28625
25.952726079680062;0.2865
25.960234497515376;0.28675
25.961042875922857;0.287
25.94845121486482;0.28725
25.947659514303623;0.2875
25.935067774201595;0.28775
25.940875994521086;0.288
25.961684175224427;0.28825
25.96249231627398;0.2885
25.980000417632105;0.28875
25.974108479261133;0.289
26.00831650112344;0.28925
26.010724483181377;0.2895
26.038232425397307;0.28975
26.074040327733606;0.29
25.829848190152628;0.29025
25.830656012616753;0.2905
26.353163795088356;0.29075
26.352271537529806;0.291
26.254779239903492;0.29125
26.252186902171793;0.2915
26.11469452429709;0.29175
26.110502106241775;0.292
26.019609647968238;0.29225
26.01881714943888;0.2925
25.994624610616082;0.29275
25.995432031462254;0.293
25.969539411939802;0.29325
25.96864675201112;0.2935
25.952854051638628;0.29375
25.955261310784728;0.294
25.951068529411835;0.29425
25.955275707482368;0.2945
25.95108284495874;0.29475
25.953489941803383;0.295
25.94769699797872;0.29525
25.948504013447177;0.2955
25.937610988171176;0.29575
25.936717922113168;0.296
25.94752481523557;0.29625
25.94673166750084;0.2965
25.95253847887141;0.29675
25.94834524930972;0.297
25.954151978778235;0.29725
25.95495866723939;0.2975
25.950765314655644;0.29775
25.951571920989455;0.298
25.957378486203282;0.29825
25.95648501025958;0.2985
25.953991493120824;0.29875
25.958097934749485;0.299
25.95390433510802;0.29925
25.954710694158916;0.2995
25.960517011864642;0.29975
25.958023288187682;0.3
25.965429523090517;0.30025
25.962935716535625;0.3005
25.970441868485512;0.30075
25.969547978902654;0.301
25.97205404774955;0.30125
25.9661600749887;0.3015
25.975266060582594;0.30175
25.977772004493747;0.302
25.975277906684656;0.30225
25.979383767117838;0.3025
25.975189585755807;0.30275
25.97599536256106;0.303
25.983501097496124;0.30325
25.979306790523534;0.3035
25.983412441605786;0.30375
25.984218050705433;0.304
25.990023617784985;0.30425
25.992529142806987;0.3045
26.009934625733962;0.30475
26.012440066528455;0.305
26.019945465153008;0.30525
26.02075082157016;0.3055
26.00485613574247;0.30575
26.003961407632474;0.306
25.95476663720273;0.30625
25.9539718244158;0.3065
25.93807696923423;0.30675
25.945582071620592;0.307
25.934687131537448;0.30725
25.94719214894736;0.3075
26.004597123812907;0.30775
26.008802056096663;0.308
26.04620694576119;0.30825
26.033711792769086;0.3085
25.932816597082923;0.30875
25.94362135866529;0.309
25.91442607747878;0.30925
25.920230753485978;0.3095
25.96943538664947;0.30975
25.973539976931868;0.31
26.074344524295775;0.31025
26.091849028703784;0.3105
26.065953490118506;0.31075
26.063457908502535;0.311
25.984262283818513;0.31125
25.988366616029033;0.3115
26.10247090509672;0.31175
25.931675150984198;0.312
26.169079353654098;0.31225
26.296583513069027;0.3125
25.71568762919163;0.31275
25.936491701984536;0.313
26.025695731410387;0.31325
26.02479971743182;0.3135
26.160603660011475;0.31375
26.213107559111993;0.314
26.130511414696038;0.31425
26.119715226726253;0.3145
25.945518995165283;0.31475
25.9396227199758;0.315
25.867126401120466;0.31525
25.894530038561925;0.3155
25.982033632262866;0.31575
25.98613718218595;0.316
26.03694068829385;0.31625
26.039444150549237;0.3165
26.028547568914803;0.31675
26.02605094335322;0.317
26.060154273827173;0.31725
26.06265756029936;0.3175
26.126760802732463;0.31775
26.18096400108918;0.318
26.063367155332198;0.31825
26.052570265424233;0.3185
25.993373331327987;0.31875
25.960776353006153;0.319
26.004979330421456;0.31925
26.009082263536598;0.3195
26.0715851523143;0.31975
26.063987996717284;0.32
26.083190796708262;0.32025
26.085593552249975;0.3205
26.121396263305133;0.32075
26.122198929836486;0.321
26.138001551806752;0.32125
26.138804129178677;0.3215
26.131306661914998;0.32175
26.12880914997846;0.322
26.076211593331813;0.32225
26.0737139919378;0.3225
26.01281634575918;0.32275
26.013618654758712;0.323
26.064420918899145;0.32325
26.068623138143252;0.3235
26.102725312453792;0.32375
26.108527441793537;0.324
26.092629526125258;0.32425
26.091831565411724;0.3245
26.062633559615723;0.32475
26.063435508700024;0.325
26.10083741262742;0.32525
26.1033392713607;0.3255
26.15244108486266;0.32575
26.14664285309607;0.326
26.002444576023752;0.32625
25.999846253608496;0.3265
26.092347885813098;0.32675
26.103149472600375;0.327
26.003951013933126;0.32725
26.003052509774182;0.3275
26.06725396008634;0.32775
26.07135536483243;0.328
26.175456723975266;0.32825
26.17965803747768;0.3285
26.220459305302494;0.32875
26.221260527412547;0.329
26.19706170377067;0.32925
26.2394628343397;0.3295
26.216963919082477;0.32975
26.224464957961846;0.33
26.018565950940655;0.33025
26.064366897981756;0.3305
26.035167799048004;0.33075
26.074268654102248;0.331
26.350069463107364;0.33125
26.412570226026197;0.3315
26.20167094282163;0.33175
26.182471613456514;0.332
26.03497223789374;0.33225
26.052472816096174;0.3325
26.1148733480267;0.33275
26.112373833648192;0.333
26.208174272923547;0.33325
26.215674665815648;0.3335
26.12147501228739;0.33375
26.120575312301664;0.334
26.13137556582138;0.33425
26.13547577280942;0.3345
26.1612759332287;0.33475
26.157076047042136;0.335
26.131276114212632;0.33525
26.1286761347031;0.3355
26.092876108476457;0.33575
26.10697603549562;0.336
26.116075915723535;0.33625
26.11027574912311;0.3365
26.104375535657287;0.33675
26.11847527528899;0.337
26.06267496798116;0.33725
26.04677461369674;0.3375
26.065874212398676;0.33775
26.068373764049912;0.338
26.11587326861339;0.33825
26.12167272605208;0.3385
26.002472136328926;0.33875
26.008271499406888;0.339
26.080670815248943;0.33925
26.084870083818043;0.3395
26.11566930507717;0.33975
26.116468478989283;0.34
26.10886760551737;0.34025
26.11466668462441;0.3405
26.11046571627338;0.34075
26.11296470042727;0.341
26.100463637049067;0.34125
26.09956252610177;0.3415
26.093661367548364;0.34175
26.097860161351864;0.342
26.093658907475255;0.34225
26.09945760588156;0.3425
26.093556256533773;0.34275
26.097654859394922;0.343
26.101853414428017;0.34325
26.099251921596068;0.3435
26.10675038086211;0.34375
26.10424879218916;0.344
26.11004715554025;0.34425
26.110845470878417;0.3445
26.108243738166692;0.34475
26.112441957368112;0.345
26.10654012844573;0.34525
26.110638251362573;0.3455
26.103136326081703;0.34575
26.105634352566174;0.346
26.113032330779046;0.34625
26.113830260683358;0.3465
26.13132814224219;0.34675
26.1338259754186;0.347
26.14462376017566;0.34725
26.145421496476445;0.3475
26.13451918428403;0.34775
26.13531682356148;0.348
26.0961144142719;0.34825
26.091911956378354;0.3485
25.996009449843953;0.34875
25.98680689463177;0.349
26.016004290704913;0.34925
26.020101638026475;0.3495
26.09089893655956;0.34975
26.093396186267277;0.35
26.137493387112727;0.35025
26.139990539059035;0.3505
26.172387642069303;0.35075
26.193184696106663;0.351
26.16068170113423;0.35125
26.14647865711514;0.3515
26.192275564012505;0.35175
26.19637242178947;0.352
26.227169230409174;0.35225
26.229665989834743;0.3525
26.118762700029336;0.35275
26.071259360956088;0.353
26.167055972578158;0.35325
26.309552534858685;0.3535
25.990349047760844;0.35375
25.99774551124778;0.354
26.143541925282662;0.35425
26.149338289828655;0.3545
26.215134604848934;0.35475
26.220930870306667;0.355
26.20672708616503;0.35525
26.207523252387215;0.3555
26.195019368936393;0.35575
26.19581543577576;0.356
26.204911452868497;0.35625
26.200707420177807;0.3565
26.188203337666884;0.35675
26.190699205298927;0.357
26.183095023037147;0.35725
26.183890790844746;0.3575
26.17968650868493;0.35775
26.18218217652093;0.358
26.176277794315943;0.35825
26.180473362033208;0.3585
26.174568879635945;0.35875
26.17536434708738;0.359
26.182859764350745;0.35925
26.180255131389277;0.3595
26.177750448166215;0.35975
26.1785457146448;0.36
26.18264093078828;0.36025
26.1818360965599;0.3605
26.199231211922914;0.36075
26.22842627684058;0.361
26.142521291276157;0.36125
26.1350162551929;0.3615
26.1091111685541;0.36175
26.134906031323;0.362
26.17570084346288;0.36225
26.178195604937024;0.3625
26.192290315708707;0.36275
26.194784975741218;0.363
26.187179584997835;0.36325
26.189674143441863;0.3635
26.185468651036583;0.36375
26.191263107745296;0.364
26.185357513531308;0.36425
26.18785186835792;0.3645
26.181946172188436;0.36475
26.18774042498618;0.365
26.185234626714458;0.36525
26.18602877733659;0.3655
26.191822876815902;0.36575
26.18931692511572;0.366
26.195110922199362;0.36625
26.19420486803017;0.3665
26.198298762571483;0.36675
26.19909260578664;0.367
26.19828639763898;0.36725
26.199080138091848;0.3675
26.2031738271086;0.36775
26.200667464652593;0.368
26.204761050687175;0.36825
26.205554585175715;0.3685
26.20304806808157;0.36875
26.20714149936812;0.369
26.202934878998725;0.36925
26.205428206936762;0.3695
26.202821483145613;0.36975
26.20201470758866;0.37
26.20780788022929;0.37025
26.208601001030885;0.3705
26.204394069956848;0.37075
26.210187086970567;0.371
26.205980052035454;0.37125
26.208372965114897;0.3715
26.21416582617231;0.37175
26.214958635171108;0.372
26.2274513920747;0.37225
26.228244096846506;0.3725
26.244036749449947;0.37275
26.244829349848448;0.373
26.257321898005436;0.37325
26.25811439388434;0.3735
26.270506837448607;0.37375
26.266299228661666;0.374
26.272091567486974;0.37425
26.271283853887955;0.3745
26.302076087828073;0.37475
26.304468269270785;0.375
26.360260398179538;0.37525
26.366052474517804;0.3755
26.253544498249035;0.37575
26.237636469336703;0.376
25.810128387744285;0.37625
25.759220253435263;0.3765
25.878412066373087;0.37675
25.890803826521275;0.377
26.19159553384329;0.37725
26.204087188302626;0.3775
26.383178789862786;0.37775
26.38737033848725;0.378
26.309761834139536;0.37825
26.30725327678314;0.3785
26.341344666381566;0.37875
26.342136002898336;0.379
26.18792728629695;0.37925
26.197118516540943;0.3795
26.28450969359382;0.37975
26.287000817419127;0.38
26.334491887980377;0.38025
26.345282905241106;0.3805
26.28607386916486;0.38075
26.280164779715175;0.381
26.19925563685559;0.38125
26.203446440549662;0.3815
26.220837190760932;0.38175
26.20002788745296;0.382
26.22741853058932;0.38225
26.229909120133545;0.3825
26.253999656049217;0.38275
26.256490138299903;0.383
26.27228056684919;0.38325
26.274770941660634;0.3835
26.270561262697825;0.38375
26.269651529924353;0.384
26.24544174330379;0.38425
26.246231902799746;0.3845
26.237022008375813;0.38475
26.24281205999558;0.385
26.25860205762266;0.38525
26.25939200122065;0.3855
26.27018189075317;0.38575
26.269271726183824;0.386
26.276761507476245;0.38625
26.279251234594042;0.3865
26.27334090750084;0.38675
26.275830526160266;0.387
26.27162009053596;0.38725
26.270709600591562;0.3875
26.276499056290703;0.38775
26.27398845759702;0.388
26.283077804474182;0.38825
26.28386709688582;0.3885
26.29295633479559;0.38875
26.295445518167156;0.389
26.28623464696419;0.38925
26.285323721150338;0.3895
26.266112740689287;0.38975
26.268601705544693;0.39
26.279390615680253;0.39025
26.281879471059632;0.3905
26.295968271646522;0.39075
26.29505701740461;0.391
26.315845708297584;0.39125
26.316634344289145;0.3915
26.33242292534299;0.39175
26.32491145142282;0.392
26.24569992249235;0.39225
26.243188338515278;0.3925
26.22897669945533;0.39275
26.248065005276224;0.393
26.282153255941672;0.39325
26.28294145141541;0.3935
26.302129591661163;0.39375
26.30291767664266;0.394
26.288705706323643;0.39425
26.28609368066786;0.3945
26.291881599639037;0.39475
26.294369463200944;0.395
26.288457271317313;0.39525
26.290945023951913;0.3955
26.286732721068503;0.39575
26.28922036263084;0.396
26.285007948602694;0.39625
26.287395478947836;0.3965
26.293182953630044;0.39675
26.295670372613095;0.397
26.291457735860774;0.39725
26.29554504333686;0.3975
26.289732295005138;0.39775
26.287119490829422;0.398
26.292906630773494;0.39825
26.293693714801158;0.3985
26.299480742876224;0.39875
26.298667714962495;0.399
26.304454631023788;0.39925
26.30024149102392;0.3995
26.306028294926705;0.39975
26.303415042695974;0.4
26.30760173429556;0.40025
26.304988369689283;0.4005
26.31247494884098;0.40075
26.308261471714495;0.401
26.315747938273674;0.40125
26.314834348482364;0.4015
26.323920702304413;0.40175
26.32310699970367;0.402
26.328893240644003;0.40225
26.326279425089268;0.4025
26.33206555300334;0.40275
26.33125162435008;0.403
26.328637639093373;0.40325
26.329423597197085;0.4035
26.326909498625103;0.40375
26.330995343341314;0.404
26.326781131309602;0.40425
26.324266862493868;0.4045
26.330052536858013;0.40475
26.32583815436592;0.405
26.333323714981514;0.40525
26.327409218668688;0.4055
26.333194665391368;0.40575
26.32898005511346;0.406
26.33476538779889;0.40625
26.328850663411583;0.4065
26.33463588191546;0.40675
26.328821043274463;0.407
26.33460614745252;0.40725
26.335391194413578;0.4075
26.33277618412158;0.40775
26.330261116540463;0.408
26.337745991634197;0.40825
26.336830809366724;0.4085
26.332615569702;0.40875
26.333400272604003;0.409
26.33748491803668;0.40925
26.33826950596402;0.4095
26.332454036349997;0.40975
26.334838509158587;0.41
26.330622924353758;0.41025
26.33480728189952;0.4105
26.332191581759847;0.41075
26.334675823898735;0.411
26.338760008280197;0.41125
26.33954413486822;0.4115
26.34532820362682;0.41175
26.34451221451999;0.412
26.353596167511775;0.41225
26.356080062566164;0.4125
26.353463899647185;0.41275
26.359247678718884;0.413
26.355031399745265;0.41325
26.357515062690375;0.4135
26.34829866751825;0.41375
26.34908221419293;0.414
26.343165702678466;0.41425
26.347349132938895;0.4145
26.34313250493829;0.41475
26.345515818640692;0.415
26.35299907401017;0.41525
26.348782271010784;0.4155
26.35626540960661;0.41575
26.352048489761717;0.416
26.35783151144019;0.41625
26.356914474606093;0.4165
26.35439737922353;0.41675
26.358480225256578;0.417
26.35596301266934;0.41725
26.358345741425907;0.4175
26.364128411490377;0.41775
26.36161102282686;0.418
26.369093575399464;0.41825
26.36817606917231;0.4185
26.372258504109496;0.41875
26.37304088017516;0.419
26.362223197333424;0.41925
26.36800545554842;0.4195
26.40538765478427;0.41975
26.407869795005116;0.42
26.510351876175097;0.42025
26.292733898258362;0.4205
26.76691586121906;0.42075
26.78599776502135;0.421
26.69677960962938;0.42125
26.690861395007317;0.4215
26.540043121119314;0.42175
26.53582478792955;0.422
26.4299063954022;0.42225
26.42898794350144;0.4225
26.384769432191444;0.42275
26.38395086143641;0.423
26.36973223120052;0.42325
26.368813541447956;0.4235
26.354594792142937;0.42375
26.35707598324965;0.424
26.351157114732302;0.42425
26.356938186555116;0.4245
26.354419198682283;0.42475
26.35850015107804;0.425
26.35258104370659;0.42525
26.355061876532176;0.4255
26.362542649519018;0.42575
26.35992336263135;0.426
26.36410401583342;0.42625
26.36318460908946;0.4265
26.368965142363713;0.42675
26.36804561562044;0.427
26.365526028823886;0.42725
26.368006381938315;0.4275
26.36538667492798;0.42775
26.364566907757155;0.428
26.360347080390106;0.42825
26.362727192791112;0.4285
26.36850724492446;0.42875
26.367687236754406;0.429
26.37176716824526;0.42925
26.370847039361305;0.4295
26.368326850066833;0.42975
26.370806600326155;0.43
26.388186290103555;0.43025
26.392365919363353;0.4305
26.42314548806986;0.43075
26.427224996187384;0.431
26.45800444368025;0.43125
26.458783830512782;0.4315
26.4695631566493;0.43175
26.46704242205415;0.432
26.452821626691655;0.43225
26.45360077052615;0.4325
26.464379853521997;0.43275
26.456758875643537;0.433
26.275937836855118;0.43325
26.273316737121093;0.4335
26.35749557640583;0.43375
26.359874354673696;0.434
26.42565307188905;0.43425
26.429831728016275;0.4345
26.508910323019737;0.43475
26.45638885686383;0.435
26.530467329512927;0.43525
26.534545740931428;0.4355
26.628724091083715;0.43575
26.5695023799342;0.436
26.563580607447264;0.43625
26.569358773587332;0.4365
26.49683687831881;0.43675
26.487614921606113;0.437
26.44499290341365;0.43725
26.450770823705845;0.4375
26.439948682447138;0.43775
26.435726479601954;0.438
26.468104215134716;0.43825
26.46388188900988;0.4385
26.476359501191876;0.43875
26.478837051645165;0.439
26.456214540334187;0.43925
26.4536919672234;0.4395
26.30116933227727;0.43975
26.29354663546025;0.44
26.18272387673682;0.44025
26.208501056071448;0.4405
26.257578173428612;0.44075
26.18335522877279;0.441
26.28083222206847;0.44125
26.289909153280142;0.4415
26.5223860223723;0.44175
26.553162829309436;0.442
26.47223957405605;0.44225
26.46801625657666;0.4425
26.38379287683577;0.44275
26.392869434797895;0.443
26.49364593042755;0.44325
26.446122363689263;0.4435
26.216898734547556;0.44375
26.52597504296697;0.444
26.090151288912033;0.44425
26.227527472347283;0.4445
26.33830359323727;0.44475
26.355779651546534;0.445
26.536555647239638;0.44525
26.53563158028113;0.4455
26.466407450635575;0.44575
26.69388325826754;0.446
26.277959003141586;0.44625
26.238734685222298;0.4465
26.496210304474246;0.44675
26.501985860862018;0.447
26.54276135435019;0.44725
26.54523678490336;0.4475
26.51931215248613;0.44775
26.51678745706308;0.448
26.48586269859883;0.44825
26.486637877057976;0.4485
26.475712992405146;0.44875
26.479888044604934;0.449
26.475663033621984;0.44925
26.474737959420903;0.4495
26.462212821966325;0.44975
26.46128762122288;0.45
26.44876235715521;0.45025
26.44953702972796;0.4505
26.476911638905772;0.45075
26.4793861846533;0.451
26.538460666935187;0.45125
26.554235085716094;0.4515
26.485009440960702;0.45175
26.480783732633657;0.452
26.309957960699638;0.45225
26.334032125123326;0.4525
26.4515062258694;0.45275
26.430580262902538;0.453
26.344654236187434;0.45325
26.35542814568877;0.4535
26.45790199137127;0.45375
26.4636757731996;0.454
26.5244494911385;0.45425
26.52522314515266;0.4545
26.477696735206795;0.45475
26.473470261265636;0.455
26.449243723293886;0.45525
26.468317121256295;0.4555
26.475790455117583;0.45575
26.474863724842493;0.456
26.470636930395756;0.45625
26.46971007174212;0.4565
26.48048314884634;0.45675
26.48125616167316;0.457
26.477029110187342;0.45725
26.48120199435365;0.4575
26.476974814136852;0.45775
26.479347569501716;0.458
26.47182026041301;0.45825
26.47589288683553;0.4585
26.471665448734047;0.45875
26.47243794607335;0.459
26.469910378818238;0.45925
26.472382746933505;0.4595
26.46975505038395;0.45975
26.468927289134378;0.46
26.472999463149602;0.46025
26.473771572394437;0.4605
26.4712436168337;0.46075
26.47201559643221;0.461
26.476087511154798;0.46125
26.476859360966294;0.4615
26.472631145831542;0.46175
26.47340286571538;0.462
26.477474520582636;0.46225
26.476646110398182;0.4625
26.482417635126858;0.46275
26.481489094733533;0.463
26.48896048918305;0.46325
26.486331818440295;0.4635
26.49880308247014;0.46375
26.501274281237443;0.464
26.5170454147071;0.46425
26.517816482843983;0.4645
26.52688748561299;0.46475
26.52765842297901;0.465
26.535129294906938;0.46525
26.53420010136168;0.4655
26.53827084230815;0.46575
26.539041517711247;0.466
26.531512127535887;0.46625
26.533982671746994;0.4665
26.56135315030949;0.46675
26.5638235631883;0.467
26.629593910348355;0.46725
26.637064191754607;0.4675
26.529434407371987;0.46775
26.51690455716544;0.468
26.129374641099922;0.46825
26.105144659140382;0.4685
26.234214611251776;0.46875
26.24668449739908;0.469
26.509054317547253;0.46925
26.518224071661272;0.4695
26.653993759706115;0.46975
26.651363381646764;0.47
26.572132937448195;0.47025
26.57130242707541;0.4705
26.602071850493395;0.47075
26.596141207667152;0.471
26.45191049856169;0.47125
26.45767972314201;0.4715
26.531748881373133;0.47175
26.53421797322007;0.472
26.55168699864785;0.47225
26.55405595762148;0.4725
26.546524850106017;0.47275
26.548993676066473;0.473
26.546362435467906;0.47325
26.55213112827534;0.4735
26.504599754453835;0.47375
26.485368313968458;0.474
26.51783680678424;0.47425
26.516905232866257;0.4745
26.537673592179573;0.47475
26.53844188468926;0.475
26.54751011036038;0.47525
26.549978269158046;0.4755
26.542446361047304;0.47575
26.543214385993274;0.476
26.508982343961023;0.47625
26.508050234915668;0.4765
26.468818058822304;0.47675
26.46628581564603;0.477
26.477053505351975;0.47725
26.479421127905244;0.4775
26.521888683270955;0.47775
26.522656171414237;0.478
26.548423592300217;0.47825
26.550890945894032;0.4785
26.56325823216082;0.47875
26.562425451065725;0.479
26.57149260257389;0.47925
26.572259686650465;0.4795
26.57632670326062;0.47975
26.577093652369495;0.48
26.582860533942277;0.48025
26.582027347944123;0.4805
26.60609409434021;0.48075
26.60686077309572;0.481
26.51762738417583;0.48125
26.513393927545735;0.4815
26.46586040317063;0.48175
26.4799268110157;0.482
26.548993151046155;0.48225
26.551459423227207;0.4825
26.57392562752406;0.48275
26.574691763901924;0.483
26.555457832326034;0.48325
26.55782383276161;0.4835
26.553589765173864;0.48375
26.556055629528046;0.484
26.601821425789396;0.48425
26.605887153923156;0.4845
26.650052813894565;0.48475
26.63241840566888;0.485
26.46818392921136;0.48525
26.462349384487258;0.4855
26.36141477146185;0.48575
26.382180090100398;0.486
26.499645340368186;0.48625
26.503710522230485;0.4865
26.576175635652586;0.48675
26.580240680599772;0.487
26.602705657037337;0.48725
26.600070564930583;0.4875
26.577535404244806;0.48775
26.543300174945315;0.488
26.59076487699743;0.48825
26.598129510366455;0.4885
26.685594075017725;0.48875
26.59965857091655;0.489
26.545422998028265;0.48925
26.53458735631821;0.4895
26.55535164575172;0.48975
26.562715866294145;0.49
26.60518001791083;0.49025
26.60424410056712;0.4905
26.581708114228384;0.49075
26.594172058859975;0.491
26.608235934427267;0.49125
26.610699740895633;0.4915
26.621463478230446;0.49175
26.622227146397087;0.492
26.616290745360935;0.49225
26.6203542750874;0.4925
26.607817735541857;0.49275
26.60688112668971;0.493
26.594344448496365;0.49325
26.608407700927238;0.4935
26.59257088394773;0.49375
26.591633997523264;0.494
26.580697041619263;0.49425
26.589860016201158;0.4945
26.59722292123438;0.49475
26.596385756684356;0.495
26.602148522516543;0.49525
26.59621121869638;0.4955
26.603673845189306;0.49575
26.602736401960797;0.496
26.6001988889763;0.49625
26.602561306201288;0.4965
26.60002365360122;0.49675
26.600785931141576;0.497
26.604848138787837;0.49725
26.604010276505477;0.4975
26.60137234426;0.49775
26.602134342016882;0.498
26.607896269741627;0.49825
26.608658127399742;0.4985
26.602819914956736;0.49875
26.610181632378104;0.499
26.602643279629373;0.49925
26.603404856676068;0.4995
26.612466363483716;0.49975
26.611627800017835;0.5
26.60738916624397;0.50025
26.716450462127657;0.5005
26.605511687634436;0.50075
26.614672842729867;0.501
26.6120339273795;0.50125
26.606194941548885;0.5015
26.6135558852036;0.50175
26.611016758309198;0.502
26.611777560831257;0.50225
26.61753829273536;0.5025
26.61329895398709;0.50275
26.61735954455203;0.503
26.61652006439577;0.50325
26.6138805134839;0.5035
26.613040891782035;0.50375
26.618801199255778;0.504
26.619561435870732;0.50425
26.61532160159252;0.5045
26.617681696386754;0.50475
26.62344172021907;0.505
26.62260167305509;0.50525
26.618361554860442;0.5055
26.617421365600777;0.50575
26.624881105241744;0.506
26.61894077374897;0.50625
26.62800037108813;0.5065
26.623759897224865;0.50675
26.62951935212485;0.507
26.628678735753752;0.50725
26.62603804807723;0.5075
26.630197289060977;0.50775
26.627556458670668;0.508
26.63171555687199;0.50825
26.629074583630636;0.5085
26.6332335389123;0.50875
26.628992422682686;0.509
26.629751234907495;0.50925
26.637109975552452;0.5095
26.639568644583253;0.50975
26.635327241965626;0.51
26.6360857676653;0.51025
26.641844221647997;0.5105
26.640902603879464;0.51075
26.636660914325425;0.511
26.639119152951633;0.51125
26.644877319723847;0.5115
26.6456354146078;0.51175
26.643093437569256;0.512
26.642151388573986;0.51225
26.647909267587757;0.5125
26.64696707457634;0.51275
26.642724809505506;0.513
26.645182472341055;0.51325
26.639240063048753;0.5135
26.643397581594407;0.51375
26.63915502794382;0.514
26.639912402062773;0.51425
26.635669703917085;0.5145
26.638026933472567;0.51475
26.635484090695037;0.515
26.637941175550313;0.51525
26.635298188004224;0.5155
26.639455128022604;0.51575
26.63351199557127;0.516
26.637568790616086;0.51625
26.646725513122888;0.5165
26.65078216305752;0.51675
26.646538740385854;0.517
26.648995245073735;0.51725
26.656351677087027;0.5175
26.652108036391613;0.51775
26.657864322953355;0.518
26.66032053673814;0.51825
26.687776677711852;0.5185
26.691832745840376;0.51875
26.74588874108961;0.519
26.748344663425442;0.51925
26.77910051281379;0.5195
26.778156289220554;0.51975
26.757311992611655;0.52
26.754667622953004;0.52025
26.667123180210524;0.5205
26.666178664350152;0.52075
26.530334075337812;0.521
26.52768941313945;0.52125
26.495144677721;0.5215
26.522599869048413;0.52175
26.619954987087645;0.522
26.632410031804646;0.52225
26.528165003165388;0.5225
26.487219901135834;0.52275
26.572974725681952;0.523
26.58212947676972;0.52325
26.756184154365126;0.5235
26.795238758434152;0.52375
26.689393288942792;0.524
26.726747745857043;0.52425
26.85920212914291;0.5245
26.869956438766387;0.52475
27.057410674693493;0.525
27.03146483689025;0.52525
26.958918925322678;0.5255
27.06967293995679;0.52575
26.765426880758625;0.526
26.76618074769423;0.52625
26.93193454072963;0.5265
26.809288259830875;0.52675
27.041741904964027;0.527
27.08249547609513;0.52725
27.26994897319024;0.5275
27.107302396215438;0.52775
26.888055745136782;0.528
26.88380901992035;0.52825
26.824562220532236;0.5285
26.825315346938506;0.52875
26.781068399105255;0.529
26.775221376998587;0.52925
26.6292742805846;0.5295
26.63502710982939;0.52975
26.68077986469908;0.53
26.686532545159775;0.53025
26.682285151177602;0.5305
26.683037682718684;0.53075
26.670490139749145;0.531
26.67284252223513;0.53125
26.665294830142763;0.5315
26.666047063438214;0.53175
26.66349922208761;0.532
26.662551306057125;0.53225
26.6700033153129;0.5325
26.669055249821113;0.53275
26.686507109547925;0.533
26.708858894459524;0.53325
26.596310604522074;0.5335
26.587062239701773;0.53375
26.622813799964803;0.534
26.62526528527736;0.53425
26.662616695605646;0.5345
26.663368030915862;0.53475
26.67251929117422;0.535
26.67487047634694;0.53525
26.66732158640023;0.5355
26.66307262130033;0.53575
26.677123581013454;0.536
26.677874465505845;0.53625
26.710325274743745;0.5365
26.711076008693396;0.53675
26.730126667321052;0.537
26.739277250592966;0.53725
26.73162775847539;0.5375
26.734078190934593;0.53775
26.691528547936855;0.538
26.692278829448437;0.53825
26.598029035435633;0.5385
26.59377916586471;0.53875
26.55452922070197;0.539
26.560279199913712;0.53925
26.601029103466228;0.5395
26.603378931325828;0.53975
26.66582868345882;0.54
26.66827835983152;0.54025
26.69562796041025;0.5405
26.689777485161322;0.54075
26.65552693405109;0.541
26.66287630704587;0.54125
26.703625604112016;0.5415
26.706074825215865;0.54175
26.633523970323772;0.542
26.602573039402092;0.54225
26.643322032417185;0.5425
26.647370949335418;0.54275
26.72151979012316;0.543
26.727268554746782;0.54325
26.776317243172677;0.5435
26.737065855367224;0.54375
26.717814391296812;0.544
26.90186285092785;0.54425
26.704311234226722;0.5445
26.458359541159844;0.54475
26.660807771693634;0.545
26.668255925794494;0.54525
26.789004003428854;0.5455
26.79475200456314;0.54575
26.890499929163788;0.546
26.89284777719723;0.54625
26.816995548629897;0.5465
26.81104324342826;0.54675
26.66849086155876;0.547
26.71753840298785;0.54725
26.589985867682;0.5475
26.537333255607674;0.54775
26.918080566731337;0.548
26.955527801019485;0.54825
26.396274958438585;0.5485
26.68202203895514;0.54875
26.736069042535618;0.549
26.74181596914655;0.54925
26.804262818754417;0.5495
26.813309591325734;0.54975
26.719056286827012;0.55
26.714802905224772;0.55025
26.762249446485548;0.5505
26.76629591057585;0.55075
26.808742297462224;0.551
26.811188607111212;0.55125
26.806934839489344;0.5515
26.80928099456319;0.55175
26.79842707229929;0.552
26.79747307266421;0.55225
26.788218995624508;0.5525
26.787264841146772;0.55275
26.75641060919755;0.553
26.748756299743448;0.55325
26.757901912751038;0.5535
26.758647448186913;0.55375
26.77099290601768;0.554
26.768438286209914;0.55425
26.775883588730256;0.5545
26.773228813545288;0.55475
26.77897396062164;0.555
26.774719029925937;0.55525
26.780464021424798;0.5555
26.77960893508486;0.55575
26.788653770872756;0.556
26.78439852875514;0.55625
26.790143208698645;0.5565
26.78918781066993;0.55675
26.799932334635656;0.557
26.800676780562487;0.55725
26.806421148417083;0.5575
26.807165438166123;0.55775
26.814609649776287;0.558
26.813653783214264;0.55825
26.817797838446737;0.5585
26.81684181544039;0.55875
26.814285714161944;0.559
26.81662953457809;0.55925
26.809073276655546;0.5595
26.81311694036102;0.55975
26.82556052566123;0.56
26.828004032522916;0.56025
26.847047460912798;0.5605
26.84609081079762;0.56075
26.863534082144113;0.561
26.862577274919026;0.56125
26.873320389089113;0.5615
26.872463424621138;0.56175
26.851506381481855;0.562
26.850549259638036;0.56225
26.82799205905645;0.5625
26.83373477970387;0.56275
26.887777421547092;0.563
26.891919984552896;0.56325
26.925962468688077;0.5635
26.886704873919435;0.56375
26.56244720021378;0.564
26.55148944753791;0.56425
26.377231615858644;0.5645
26.382973705142803;0.56475
26.680415715357213;0.565
26.697857646468705;0.56525
26.880199498444114;0.5655
26.862641271250283;0.56575
26.79838296485405;0.566
26.799124579222273;0.56625
26.918166114321814;0.5665
26.93560757011952;0.56675
26.80804894658227;0.567
26.802090243676936;0.56725
26.817831461370393;0.5675
26.815272599629527;0.56775
26.866013658421217;0.568
26.866754637712372;0.56825
26.87579553746988;0.5685
26.87153635766065;0.56875
26.86727709825158;0.569
26.871317759209607;0.56925
26.825458340501623;0.5695
26.824498842094584;0.56975
26.8002392639554;0.57
26.819279606051012;0.57025
26.83341986834836;0.5705
26.835760050814393;0.57075
26.841500153416064;0.571
26.840640176120328;0.57125
26.836380118894148;0.5715
26.835419981704487;0.57175
26.841159764518327;0.572
26.836899467302644;0.57225
26.840939090024417;0.5725
26.841678632650634;0.57275
26.849118095148306;0.573
26.84815747748441;0.57325
26.85559677962596;0.5735
26.854636001539973;0.57375
26.86037514319346;0.574
26.85951420455343;0.57425
26.845253185586927;0.5745
26.844292086260978;0.57475
26.810030906542615;0.575
26.80906964639889;0.57525
26.77480830579684;0.5755
26.77224688470352;0.57575
26.797985383085987;0.576
26.800423800911314;0.57625
26.83446213814656;0.5765
26.835200394758807;0.57675
26.85423857071513;0.577
26.85337666598262;0.57725
26.86071468052836;0.5775
26.86315261431944;0.57775
26.85719046732298;0.578
26.85962823950607;0.57825
26.865365930835832;0.5785
26.864403541279376;0.57875
26.873541070803828;0.579
26.87587851937632;0.57925
26.89501588696398;0.5795
26.89575317353394;0.57975
26.793090379053368;0.58
26.768827503489383;0.58025
26.792964546809166;0.5805
26.795301508979865;0.58075
26.85273838996864;0.581
26.855175189742667;0.58125
26.874211908269128;0.5815
26.876648545515202;0.58175
26.870685101448075;0.582
26.876421576034943;0.58225
26.87385796924299;0.5825
26.876194281039435;0.58275
26.880330511391485;0.583
26.88266666026635;0.58325
26.87680272763125;0.5835
26.875838713453412;0.58375
26.85157461770006;0.584
26.85401044033844;0.58425
26.864746181335786;0.5845
26.865481840659342;0.58475
26.88281741827637;0.585
26.881952914154123;0.58525
26.899288328259864;0.5855
26.896723660560856;0.58575
26.915758911024383;0.586
26.914894079617717;0.58625
26.83892916630814;0.5865
26.83636417106295;0.58675
26.812099093849433;0.587
26.822833934634904;0.58725
26.865168693386654;0.5875
26.86930337007201;0.58775
26.88663796465827;0.588
26.889072477112776;0.58825
26.883106907402848;0.5885
26.885541255495813;0.58875
26.881275521359015;0.589
26.885309704959813;0.58925
26.88944380626553;0.5895
26.89017782524354;0.58975
26.880911761861206;0.59
26.88494561608588;0.59025
26.88237938788494;0.5905
26.88471307722577;0.59075
26.89384668407574;0.591
26.894580208402246;0.59125
26.926913650172686;0.5915
26.927647009354455;0.59175
26.95178028591495;0.592
26.95251347982159;0.59225
26.961546591041788;0.5925
26.96227961954297;0.59275
26.93301256529255;0.593
26.93374542825798;0.59325
26.87277820840667;0.5935
26.871910905706084;0.59375
26.81094352012366;0.594
26.80167605162687;0.59425
26.814108500183146;0.5945
26.83144086575997;0.59475
26.815573148324816;0.595
26.811305347845146;0.59525
26.678637464288457;0.5955
26.686069497622217;0.59575
26.816801447813933;0.596
26.8258333148311;0.59625
26.97156509864122;0.5965
26.9772967992118;0.59675
27.018028416510365;0.597
27.00875995050442;0.59725
26.7994914011615;0.5975
26.77192276844913;0.59775
26.88095405233485;0.598
26.88668525278621;0.59825
27.157416369770743;0.5985
27.169847403256014;0.59875
27.26557835320957;0.599
27.259609219598985;0.59925
27.14704000239183;0.5995
27.184470701555668;0.59975
27.103501317058093;0.6
27.10093184886668;0.60025
27.071662296949036;0.6005
27.06899266127274;0.60075
27.024722941805415;0.601
27.01215313851465;0.60125
26.856183251368076;0.6015
26.850313280333296;0.60175
26.99434322537795;0.602
27.00337308646966;0.60225
26.705802863576068;0.6025
26.776532556664815;0.60275
26.953962165703544;0.603
26.95969169065991;0.60325
26.975421131501573;0.6035
26.972750488196198;0.60375
26.938479760711445;0.604
26.937608949015004;0.60425
26.92833805307455;0.6045
26.930667072857766;0.60475
26.92479600833235;0.605
26.927124859465998;0.60525
26.912853626226404;0.6055
26.91528230858129;0.60575
26.904310906498367;0.606
26.910039419945345;0.60625
26.902467848889962;0.6065
26.901496193299945;0.60675
26.90722445314303;0.607
26.906352628386962;0.60725
26.917080718999483;0.6075
26.917808724948348;0.60775
26.931836646201322;0.608
26.934264482726167;0.60825
26.939992234490653;0.6085
26.942319901462547;0.60875
26.936447483609655;0.609
26.94047498089973;0.60925
26.969502393300598;0.6095
26.968629720780037;0.60975
26.844356963305856;0.61
26.85168412084586;0.61025
26.909111193367877;0.6105
26.914838180839716;0.61075
26.990565083229214;0.611
27.02459190050419;0.61125
26.990318632632494;0.6115
26.984445279581966;0.61175
26.825171841320447;0.612
26.8174983178158;0.61225
26.73322470903589;0.6125
26.76395101494857;0.61275
26.856377235521723;0.613
26.85880337072322;0.61325
26.92112942052094;0.6135
26.92685538488279;0.61375
26.910981263776648;0.614
26.910007057170404;0.61425
26.96073276503199;0.6145
26.959758387329305;0.61475
27.03718392403026;0.615
27.082909375102787;0.61525
26.940334740514807;0.6155
26.932660020234255;0.61575
26.865085214229076;0.616
26.857510322467206;0.61625
26.928235344916605;0.6165
26.933960281545225;0.61675
26.966285132321037;0.617
26.962009897211992;0.61725
26.939434576186077;0.6175
26.953459169211264;0.61775
26.965883676255544;0.618
26.969908097286908;0.61825
26.967332432273338;0.6185
26.96805668118286;0.61875
26.96208084398346;0.619
26.96280492064316;0.61925
26.95852891112998;0.6195
26.95925281541195;0.61975
26.96497663345709;0.62
26.959100365233443;0.62025
26.964824010709048;0.6205
26.96384756985195;0.62075
26.969571042630214;0.621
26.966994429011887;0.62125
26.972717728965037;0.6215
26.97504094245773;0.62175
26.967464069458046;0.622
26.96988710993408;0.62225
26.9689100638539;0.6225
26.971332931185614;0.62275
26.967055711897302;0.623
26.96777840595709;0.62325
26.973501013333077;0.6235
26.974223533993385;0.62375
26.971545967906124;0.624
26.975668315039442;0.62425
26.971390575361454;0.6245
26.975412748840306;0.62475
26.98113483544414;0.625
26.97685683514112;0.62525
26.982578747899385;0.6255
26.978300573687104;0.62575
26.982322312472448;0.626
26.981443964223583;0.62625
26.9771655289087;0.6265
26.977887006495976;0.62675
26.9836083969536;0.627
26.97762970024977;0.62725
26.983350916352695;0.6275
26.980772045230587;0.62775
26.988093086851645;0.628
26.98551404118409;0.62825
26.992934908196162;0.6285
26.99195568785607;0.62875
26.997676380132074;0.629
26.99669698499241;0.62925
27.004117502405315;0.6295
27.009837932339064;0.62975
27.003858274761896;0.63
27.009578529642088;0.63025
27.005298696947914;0.6305
27.00601877664764;0.63075
26.99673876870957;0.631
26.997458673101967;0.63125
26.991578489793138;0.6315
26.9988982187514;0.63175
26.99301785994503;0.632
26.99533741334235;0.63225
27.001056878911694;0.6325
27.001776256621376;0.63275
26.999195546439715;0.633
27.003214748335054;0.63325
26.99893386227574;0.6335
26.99965288823012;0.63375
27.007071826166538;0.634
27.00449067605336;0.63425
27.010209437858947;0.6345
27.012528111551667;0.63475
27.018246697099897;0.635
27.01736519447203;0.63525
27.026383603636443;0.6355
27.03040192456153;0.63575
27.024520157215687;0.636
27.01683830156733;0.63625
27.04425635758487;0.6365
27.04997432523671;0.63675
27.087392204491287;0.637
27.16470999531702;0.63725
26.950427697682354;0.6375
26.97284531155572;0.63775
27.420262836905565;0.638
27.40428027370034;0.63825
27.284997621908516;0.6385
27.27901488149854;0.63875
27.136432052438884;0.639
27.133849134698035;0.63925
27.081166128244465;0.6395
27.08028303304667;0.63975
27.075999849073124;0.64
27.080016576292344;0.64025
27.074033214672824;0.6405
27.07644976418309;0.64075
27.040466224791636;0.641
27.039582596467;0.64125
26.970298879177705;0.6415
26.96761507289229;0.64175
26.886731177579293;0.642
26.88404719320725;0.64225
26.909763119744724;0.6425
26.91387895716027;0.64275
26.96459470542245;0.643
26.968610364499835;0.64325
27.006025934360995;0.6435
27.006741414974524;0.64375
26.964056806308996;0.644
26.959772108333006;0.64425
27.002187321015153;0.6445
27.004602444324043;0.64475
27.035317478228293;0.645
27.01603242269651;0.64525
26.970047277697322;0.6455
26.98406204319936;0.64575
27.039776719171243;0.646
27.042191305581625;0.64625
27.07290580239915;0.6465
27.066920209592467;0.64675
26.982634527130237;0.647
26.975048754981124;0.64725
27.155762893113792;0.6475
27.276476941496924;0.64775
26.81049090009919;0.648
26.97120476888929;0.64825
27.078618547835912;0.6485
27.081032236907767;0.64875
27.100045836073537;0.649
27.097459345301942;0.64925
27.071472764561705;0.6495
27.072186093821553;0.64975
27.052899333050206;0.65
27.053612482216398;0.65025
27.04262554128887;0.6505
27.04833851023638;0.65075
27.044051389027672;0.651
27.0447641776315;0.65125
27.05047687601663;0.6515
27.049589484151845;0.65175
27.04530200200591;0.652
27.044314429547608;0.65225
27.051726766745734;0.6525
27.05073901356908;0.65275
27.04475116998644;0.653
27.04546323596663;0.65325
27.051175211478448;0.6535
27.053587096490723;0.65375
27.047598890972285;0.654
27.05501059489195;0.65425
27.050722208218566;0.6545
27.056433730920965;0.65475
27.053845162968003;0.655
27.052856504328535;0.65525
27.05856775497141;0.6555
27.060978914865508;0.65575
27.054989983979695;0.656
27.05740096228284;0.65625
27.064711849743837;0.6565
27.067122646331583;0.65675
27.076133352014963;0.657
27.071843966762877;0.65725
27.079254490544244;0.6575
27.07826492332796;0.65775
27.073975265082964;0.658
27.076385515778178;0.65825
27.053795675382524;0.6585
27.054505743864947;0.65875
27.050215721194398;0.659
27.05422560733981;0.65925
27.06663540227015;0.6595
27.06564510595438;0.65975
27.081354718361474;0.66
27.080364239460394;0.66025
27.07107366922012;0.6605
27.070183007609646;0.66075
27.054192254597957;0.661
27.051601410154056;0.66125
27.060610474246953;0.6615
27.063019446845644;0.66175
27.080328327919155;0.662
27.081037117436512;0.66225
27.093445815366728;0.6625
27.094154421678855;0.66275
27.108162936341923;0.663
27.10887135932498;0.66325
27.12297969059707;0.6635
27.12368793012727;0.66375
27.13439607788463;0.664
27.13670413383823;0.66425
27.147412097957144;0.6645
27.146519970210452;0.66475
27.155527750567238;0.665
27.154535438996604;0.66525
27.143643035467647;0.6655
27.14765053994949;0.66575
27.16835795241122;0.666
27.17076527282197;0.66625
27.23147250115087;0.6665
27.240479637367038;0.66675
27.134486681439622;0.667
27.120193633337756;0.66725
26.750900493030603;0.6675
26.7183072604873;0.66775
26.837313935677027;0.668
26.84642051856894;0.66825
27.102127009132225;0.6685
27.11113340733604;0.66875
27.25683971314959;0.669
27.257545926542058;0.66925
27.179952047482654;0.6695
27.177258075940564;0.66975
27.21296401188501;0.67
27.20866985528521;0.67025
27.072775606110373;0.6705
27.080081264329742;0.67075
27.15748682991255;0.671
27.16149230282803;0.67125
27.172197683045432;0.6715
27.16630297053401;0.67175
27.095308165263024;0.672
27.08101326720174;0.67225
27.101718276319424;0.6725
27.114123192585364;0.67275
27.091428015968823;0.673
27.088832746439117;0.67325
27.137837383965525;0.6735
27.138541928517355;0.67375
27.154246380063903;0.674
27.148350738574504;0.67425
27.12735500401846;0.6745
27.126359176365106;0.67475
27.13706325558377;0.675
27.134467241643797;0.67525
27.15017113451453;0.6755
27.15257493416532;0.67575
27.161578640565516;0.676
27.157282253684485;0.67625
27.164685773491613;0.6765
27.16538919995625;0.67675
27.172692533047787;0.677
27.171795772735617;0.67725
27.16409891898914;0.6775
27.16320197177773;0.67775
27.125504931070818;0.678
27.124607796837807;0.67825
27.09031056904812;0.6785
27.089313247671182;0.67875
27.080015832676416;0.679
27.08741832403326;0.67925
27.133120721711165;0.6795
27.13542302567957;0.67975
27.231125235907946;0.68
27.251827352365737;0.68025
27.184229375022426;0.6805
27.17993130384747;0.68075
27.228933138810376;0.681
27.206334879880597;0.68125
27.22873652702765;0.6815
27.224438080221027;0.68175
27.17673953943023;0.682
27.17244090462477;0.68225
27.058142175774172;0.6825
27.053843352847956;0.68275
26.94794443581565;0.683
26.94364542464678;0.68325
27.0793463193109;0.6835
27.156647119777567;0.68375
26.94574782601631;0.684
27.289748437996714;0.68425
26.763748955688335;0.6845
26.767849379060742;0.68475
27.031849708083527;0.685
27.017549942726262;0.68525
27.318250082958553;0.6855
27.333950128749986;0.68575
27.412950080070168;0.686
27.33534993688871;0.68625
27.12934969917523;0.6865
27.15674936689935;0.68675
27.460748940030705;0.687
27.224848418538908;0.68725
27.068847802393638;0.6875
27.06624709156451;0.68775
27.161946286021188;0.688
27.169245385733333;0.68825
27.268344390670617;0.6885
27.2723433008027;0.68875
27.28974211609928;0.689
27.288740836530025;0.68925
27.21943946206463;0.6895
27.220137992672797;0.68975
27.26083642832423;0.69
27.283234768988628;0.69025
27.258933014635726;0.6905
27.24963116523523;0.69075
27.15362922075688;0.691
27.172627181170405;0.69125
27.24002504644555;0.6915
27.24402281655206;0.69175
27.254720491459686;0.692
27.25211807113819;0.69225
27.23451555555735;0.6925
27.23351294468692;0.69275
27.217510238496693;0.693
27.22160743695645;0.69325
27.218904540035982;0.6935
27.21960154770508;0.69375
27.225298459933562;0.694
27.257695276691223;0.69425
27.216691997947894;0.6945
27.20578862367339;0.69475
27.134785153837534;0.695
27.15718158841018;0.69525
27.196177927361152;0.6955
27.198574170660308;0.69575
27.210870318277493;0.696
27.21326637018258;0.69625
27.21066232634543;0.6965
27.212958186735914;0.69675
27.20705395132391;0.697
27.209349620079312;0.69725
27.20504519297201;0.6975
27.20574066997189;0.69775
27.211436051048867;0.698
27.210531336172856;0.69825
27.20452652531377;0.6985
27.21022161844153;0.69875
27.20591661552607;0.699
27.20491151653732;0.69925
27.210606321445233;0.6995
27.21130103021975;0.69975
27.203695642830827;0.7
27.20609015924843;0.70025
27.201784579442524;0.7005
27.20247890338308;0.70075
27.19817313104008;0.701
27.202167262383515;0.70125
27.197861297383383;0.7015
27.19685523600966;0.70175
27.202549078232376;0.702
27.203242824021537;0.70225
27.20733647334716;0.7025
27.206330026179266;0.70275
27.215323482487893;0.703
27.216016842243075;0.70325
27.225110105414856;0.7035
27.224103271973284;0.70375
27.244796341888417;0.704
27.245489315130325;0.70425
27.27118219166907;0.7045
27.27357497147472;0.70475
27.31426765451738;0.705
27.34156024076712;0.70525
27.182252730194037;0.7055
27.152945122768237;0.70575
27.22033741845982;0.706
27.212729617238907;0.70625
27.435021719075618;0.7065
27.44741372394008;0.70675
27.54640563180242;0.707
27.50379744263278;0.70725
27.387789156401308;0.7075
27.435180773078155;0.70775
27.359172292633485;0.708
27.35326371503745;0.70825
27.318955040260228;0.7085
27.317946268272;0.70875
27.24533739904295;0.709
27.23262843254326;0.70925
27.185019368743138;0.7095
27.18571020761278;0.70975
27.219700949122394;0.71
27.220391593242198;0.71025
27.214482139942422;0.7105
27.213472589193287;0.71075
27.20086294096502;0.711
27.199853195227888;0.71125
27.19384335195211;0.7115
27.19793341110796;0.71175
27.19362337266569;0.712
27.195913236595576;0.71225
27.190003002867876;0.7125
27.197292671452885;0.71275
27.192982242320884;0.713
27.193671715442164;0.71325
27.20106109078703;0.7135
27.20005036832578;0.71375
27.197439548028726;0.714
27.2014286298662;0.71425
27.20551761380851;0.7145
27.204506499826;0.71475
27.19849528788901;0.715
27.202583977967862;0.71525
27.198272570032934;0.7155
27.20056106405457;0.71575
27.20624946000313;0.716
27.20533775784899;0.71625
27.21102595756253;0.7165
27.210014059114126;0.71675
27.214002062474165;0.717
27.213089967613058;0.71725
27.217077774501192;0.7175
27.216065483108984;0.71775
27.221753093406843;0.718
27.2191406053652;0.71825
27.226528018954472;0.7185
27.2255153341451;0.71875
27.23120255090753;0.719
27.2351896692122;0.71925
27.23087668902956;0.7195
27.23156361033009;0.71975
27.235650433084235;0.72
27.232937157262487;0.72025
27.238623782835308;0.7205
27.2360103097732;0.72075
27.23999673804665;0.721
27.23568306762616;0.72125
27.24306929848222;0.7215
27.242055430585367;0.72175
27.237741463906104;0.722
27.24012739841496;0.72225
27.23581323408247;0.7225
27.238198970879164;0.72275
27.242184608775595;0.723
27.239570147742306;0.72325
27.24525558774986;0.7235
27.24094092876883;0.72375
27.246626170769765;0.724
27.24231131372327;0.72425
27.247996357599902;0.7245
27.250281302370265;0.72475
27.244366148004957;0.725
27.250050894474573;0.72525
27.255735541749733;0.7255
27.25802008980104;0.72575
27.253704538599134;0.726
27.254388888114626;0.72625
27.26007313831817;0.7265
27.257457289180394;0.72675
27.261441340671947;0.727
27.2605252927635;0.72725
27.266209145425698;0.7275
27.26349289862921;0.72775
27.267576552344725;0.728
27.26656010654291;0.72825
27.270543561194472;0.7285
27.267926916270078;0.72875
27.273610171740447;0.729
27.274293327576284;0.72925
27.269976383748308;0.7295
27.270659340227226;0.72975
27.276342196983776;0.73
27.277024953988693;0.73025
27.27270761121271;0.7305
27.27839016862658;0.73075
27.272372626201054;0.731
27.278054983906888;0.73125
27.27373724171485;0.7315
27.27611939959573;0.73175
27.270101457520276;0.732
27.272483415459302;0.73225
27.276465273383586;0.7325
27.275547031263937;0.73275
27.271228689071147;0.733
27.27351024677604;0.73325
27.26919170434944;0.7335
27.276573061762157;0.73375
27.27225431898503;0.734
27.276235475988898;0.73425
27.280316532744607;0.7345
27.28099748922301;0.73475
27.286678345394975;0.735
27.28565910123134;0.73525
27.293039756703003;0.7355
27.29202031178083;0.73575
27.297700766435703;0.736
27.300081120638527;0.73625
27.29576137436019;0.7365
27.299741527571598;0.73675
27.295421580243662;0.737
27.297801532347293;0.73725
27.30348138385343;0.7375
27.304161134732993;0.73775
27.299840784956928;0.738
27.303820334496177;0.73825
27.30779978332168;0.7385
27.308479131404404;0.73875
27.30415837871532;0.739
27.306537525225384;0.73925
27.312216570905576;0.7395
27.30959551572689;0.73975
27.315274359660307;0.74
27.312553102676823;0.74025
27.311631744747455;0.7405
27.313910285843203;0.74075
27.307988725935076;0.741
27.311967064994114;0.74125
27.30764530299134;0.7415
27.30832343989779;0.74175
27.31070147568451;0.742
27.309679410322545;0.74225
27.313657243782952;0.7425
27.3143349760368;0.74275
27.310012607055157;0.743
27.3140901368091;0.74325
27.30806756526971;0.7435
27.30704489240808;0.74375
27.31442211819531;0.744
27.31179924260249;0.74425
27.319076265600742;0.7445
27.316453187161173;0.74475
27.322130007254913;0.745
27.322806725853095;0.74525
27.31848334292685;0.7455
27.320859858447328;0.74575
27.31483627238566;0.746
27.315512584713023;0.74625
27.309488795400572;0.7465
27.310164904419477;0.74675
27.30424091174092;0.747
27.309916817336074;0.74725
27.29889262117613;0.7475
27.296268323232297;0.74775
27.31024392347576;0.748
27.31091942187775;0.74825
27.329894818409464;0.7485
27.332270113042135;0.74875
27.327945305746987;0.749
27.328620396495264;0.74925
27.312595385258206;0.7495
27.311670272007063;0.74975
27.300645056713087;0.75
27.301319739347548;0.75025
27.318694319881722;0.7505
27.437668798286868;0.75075
27.320043174534277;0.751
27.334017448595247;0.75125
27.337991620441066;0.7515
27.38366569004303;0.75175
27.38603965737248;0.752
27.426713522400693;0.75225
27.429087285099023;0.7525
27.446360945438784;0.75275
27.44543450339132;0.753
27.451107958927963;0.75325
27.44838131202009;0.7535
27.41245456263903;0.75375
27.411427710756158;0.754
27.373800756342845;0.75425
27.374473699370476;0.7545
27.395146539810415;0.75475
27.394119277634076;0.755
27.31479191281284;0.75525
27.31046444531811;0.7555
27.279436875121313;0.75575
27.295109202193853;0.756
27.31748142650716;0.75625
27.339853548032657;0.7565
27.303825566741796;0.75675
27.296197482606015;0.757
26.966869295596762;0.75725
26.952541005685493;0.7575
26.821512612843684;0.75775
26.877184117042795;0.758
27.312855518254317;0.75825
27.32852681644972;0.7585
27.5391980116005;0.75875
27.53486910367817;0.759
27.317240092654217;0.75925
27.277910978500156;0.7595
27.478581761187517;0.75975
27.645852440687822;0.76
27.344923016972587;0.76025
27.502193490013376;0.7605
27.711263859781713;0.76075
27.728534126249166;0.761
27.700904289387296;0.76125
27.69827434916766;0.7615
27.662244305561828;0.76175
27.694614158541384;0.762
27.586883908077915;0.76225
27.570953554143017;0.7625
27.399923096708292;0.76275
27.39229253574534;0.763
27.29296187122578;0.76325
27.350231103121228;0.7635
27.45260023140331;0.76375
27.461569256043667;0.764
27.337238177013937;0.76425
27.33290699428577;0.7645
27.383575707830804;0.76475
27.387644317620726;0.765
27.438312823627186;0.76525
27.437281225821863;0.7655
27.42124952417644;0.76575
27.421917718662606;0.766
27.41098580925206;0.76625
27.409953795916493;0.7665
27.402321678627622;0.76675
27.40298945735716;0.767
27.423657132076826;0.76725
27.437624702758363;0.7675
27.316592169373486;0.76775
27.31725953189396;0.768
27.347926790291513;0.76825
27.350293944537917;0.7685
27.385960994604932;0.76875
27.383327940464326;0.769
27.39059478208788;0.76925
27.39126151944737;0.7695
27.385328152514592;0.76975
27.387594681261348;0.77
27.38496110565943;0.77025
27.38392742568066;0.7705
27.381293641296843;0.77075
27.381959752479823;0.771
27.375925759201422;0.77125
27.378291661433476;0.7715
27.38395745914783;0.77175
27.38462315231634;0.772
27.380288740910864;0.77225
27.384254224903266;0.7725
27.37991960426542;0.77275
27.38398487896921;0.773
27.379650048986512;0.77325
27.38361511428923;0.7735
27.380980074849262;0.77375
27.37824493063851;0.774
27.385609681628885;0.77425
27.382974327792315;0.7745
27.388638869100724;0.77475
27.385903305526057;0.775
27.394967637040242;0.77525
27.39723186361523;0.7755
27.38789598522298;0.77575
27.38856000183545;0.776
27.375923913424607;0.77625
27.37988771996244;0.7765
27.407251421420913;0.77675
27.411215017772026;0.777
27.47187850898778;0.77725
27.49594189504016;0.7775
27.4566051759012;0.77775
27.44886835154289;0.778
27.359531421937284;0.77825
27.37859438705639;0.7785
27.490857246872253;0.77875
27.48492000135692;0.779
27.343882650482435;0.77925
27.352845194220865;0.7795
27.22520763254427;0.77975
27.240869965424725;0.78
27.374832192834305;0.78025
27.3838943147451;0.7805
27.696156331129206;0.78075
27.740218241958715;0.781
27.672480047205735;0.78125
27.663141746842385;0.7815
27.60550334084078;0.78175
27.61116482917305;0.782
27.49012621181133;0.78225
27.477487488727753;0.7825
27.498148659894483;0.78275
27.523809725283666;0.783
27.47447068486746;0.78325
27.486831538618038;0.7835
27.419092286507578;0.78375
27.41315292850826;0.784
27.288813464592273;0.78425
27.30607389473182;0.7845
27.370134218899093;0.78475
27.362394437066314;0.785
27.409754549205694;0.78525
27.41211455528946;0.7855
27.476074455289844;0.78575
27.49003424917908;0.786
27.46739393692942;0.78625
27.466353518513106;0.7865
27.360412993902408;0.78675
27.35767236306959;0.787
27.460031625986915;0.78725
27.46069078262667;0.7875
27.29964983296115;0.78775
27.673708776962634;0.788
27.09596761460344;0.78825
27.230026345855855;0.7885
27.402284970692207;0.78875
27.369643489084822;0.789
27.468601901006018;0.78925
27.497660206428126;0.7895
27.466618405323505;0.78975
27.460576497664498;0.79
27.39293448342346;0.79025
27.406892362572755;0.7905
27.437550135084756;0.79075
27.436607800931835;0.791
27.443865360086377;0.79125
27.44122281252078;0.7915
27.431880158207438;0.79175
27.432537397118754;0.792
27.424894529227146;0.79225
27.42715155450503;0.7925
27.422808472924828;0.79275
27.426865284458987;0.793
27.422521989079936;0.79325
27.424778586760123;0.7935
27.43043507747201;0.79375
27.432791461188046;0.794
27.428447737880713;0.79425
27.430803907522474;0.7945
27.423059970085813;0.79475
27.42541592554323;0.795
27.42277177386722;0.79525
27.42342751503027;0.7955
27.430683149004903;0.79575
27.428038675763638;0.796
27.433694095279;0.79625
27.43264940752351;0.7965
27.44000461246972;0.79675
27.437359710090163;0.797
27.441314700357403;0.79725
27.438669583243986;0.7975
27.444324358722493;0.79775
27.44157902676549;0.798
27.450633587345553;0.79825
27.446288040435277;0.7985
27.450242386007258;0.79875
27.452596624034094;0.799
27.446550754488392;0.79925
27.44890477734277;0.7995
27.452858692569848;0.79975
27.45021250014227;0.8
27.445866200032654;0.80025
27.449819792213646;0.8005
27.445473276657907;0.80075
27.44612665333809;0.801
27.453479922226858;0.80125
27.45243308329689;0.8015
27.463086136520854;0.80175
27.460439081871446;0.802
27.46939191932136;0.80225
27.46674464884329;0.8025
27.470697270409943;0.80275
27.46804978399404;0.803
27.472002189568297;0.80325
27.467654487105438;0.8035
27.47330667657821;0.80375
27.467258757959353;0.804
27.47291073122161;0.80425
27.468562596337748;0.8045
27.460914353280515;0.80475
27.4632660020227;0.805
27.45391754253707;0.80525
27.456168974796412;0.8055
27.45352029877352;0.80575
27.454171514441196;0.806
27.459822621772243;0.80625
27.45547362073947;0.8065
27.464424511315702;0.80675
27.461775293473774;0.807
27.469125967186507;0.80725
27.468076532426743;0.8075
27.47372698916735;0.80775
27.47107733738116;0.808
27.476727577041054;0.80825
27.47567770811989;0.8085
27.48132773059055;0.80875
27.478677644425925;0.809
27.482627449598898;0.80925
27.47997714608237;0.8095
27.48392673384924;0.80975
27.481276212872437;0.81
27.486925583124872;0.81025
27.489174844579466;0.8105
27.484823997209155;0.81075
27.492173040986895;0.811
27.486121975885613;0.81125
27.48677080187828;0.8115
27.490819518937847;0.81175
27.488068127037295;0.812
27.482116626149594;0.81225
27.48276501624773;0.8125
27.47841329730469;0.81275
27.47906146929348;0.813
27.4863095321871;0.81325
27.488657485958562;0.8135
27.497605330580896;0.81375
27.498253066027107;0.814
27.487300692270253;0.81425
27.486248209283357;0.8145
27.475195617039475;0.81475
27.475842915511667;0.815
27.48649010467299;0.81525
27.485537184496508;0.8155
27.4994841549553;0.81575
27.498431016022455;0.816
27.507477767671073;0.81625
27.50972440987423;0.8165
27.507070942605047;0.81675
27.507717365836626;0.817
27.511663679542096;0.81725
27.515709883694583;0.8175
27.50965597826722;0.81775
27.512001963233146;0.818
27.50764783856551;0.81825
27.50489360423746;0.8185
27.508939260222174;0.81875
27.50618480649281;0.819
27.510230243022548;0.81925
27.512475569784577;0.8195
27.506520786752084;0.81975
27.50716589389826;0.82
27.51281089119633;0.82025
27.510055778619485;0.8205
27.51740055614096;0.82075
27.519745223733974;0.821
27.51698978137177;0.82125
27.519334229027578;0.8215
27.524978566674655;0.82175
27.523922794286257;0.822
27.521266911835646;0.82225
27.523610919296086;0.8225
27.51755481664086;0.82275
27.52149860384326;0.823
27.52554228087656;0.82325
27.527785847714075;0.8235
27.555129304329103;0.82375
27.55577265069497;0.824
27.57641588678498;0.82425
27.580359012572465;0.8245
27.58940202803076;0.82475
27.58834493313322;0.825
27.55898772785318;0.82525
27.559630412164005;0.8255
27.510272986039052;0.82575
27.509215449451695;0.826
27.458257802375314;0.82625
27.453900044783296;0.8265
27.47114217664903;0.82675
27.480184197945913;0.827
27.439126108647358;0.82725
27.431467908726784;0.8275
27.2854095981576;0.82775
27.29105117691325;0.828
27.42169264496716;0.82825
27.429034002292767;0.8285
27.546275248863537;0.82875
27.550316384652916;0.829
27.58755740963438;0.82925
27.58659832378139;0.8295
27.592239127067437;0.82975
27.587879819465996;0.83
27.596820400950577;0.83025
27.59746087149466;0.8305
27.588101231071768;0.83075
27.585441479655415;0.831
27.561081617219127;0.83125
27.583321643736426;0.8315
27.605661559180852;0.83175
27.59960136352595;0.832
27.606941056745274;0.83225
27.61588063881239;0.8325
27.563220109700847;0.83275
27.558859469384238;0.833
27.527798717836124;0.83325
27.55343785503011;0.8335
27.607476880939796;0.83375
27.604715795538763;0.834
27.475354598800635;0.83425
27.477693290699033;0.8345
27.53663187120757;0.83475
27.538970340299894;0.835
27.56630869794963;0.83525
27.568546944130425;0.8355
27.572585078815937;0.83575
27.571523101979835;0.836
27.577161013595777;0.83625
27.57449881363744;0.8365
27.560136502078507;0.83675
27.55737407889267;0.837
27.539711544053628;0.83725
27.540348897535083;0.8375
27.550986139310748;0.83775
27.553323269354344;0.838
27.565560287639595;0.83825
27.56289719414024;0.8385
27.57353398883001;0.83875
27.570870671682663;0.839
27.57480724267195;0.83925
27.575443701771647;0.8395
27.569380048955505;0.83975
27.571716284197308;0.84
27.56405240747085;0.84025
27.566288418749917;0.8405
27.6003243180083;0.84075
27.604260105219826;0.841
27.644895780358294;0.84125
27.64383134339753;0.8415
27.66616679431136;0.84175
27.66680213307363;0.842
27.63913735965817;0.84225
27.638072474038843;0.8425
27.517007476189512;0.84275
27.51104236608402;0.843
27.349977143696258;0.84325
27.3456118090001;0.8435
27.407946361969433;0.84375
27.41358080257816;0.844
27.520815130800177;0.84425
27.524849346609386;0.8445
27.587083449979716;0.84475
27.594417440885096;0.845
27.581751319299443;0.84525
27.582385085196698;0.8455
27.549618738550812;0.84575
27.56525227933574;0.846
27.647585707525444;0.84625
27.651519023093893;0.8465
27.608852226015046;0.84675
27.62948531626291;0.847
27.515118293811465;0.84725
27.520751158634702;0.8475
27.794683910706635;0.84775
27.73701655000128;0.848
27.397649076492645;0.84825
27.441581490154768;0.8485
27.710613790961677;0.84875
27.89954597888741;0.849
27.431878053906033;0.84925
27.567510015991587;0.8495
27.67314186511814;0.84975
27.675373601259764;0.85
27.697705224390546;0.85025
27.696636734484553;0.8505
27.6789681315159;0.85075
27.679599415458675;0.851
27.66353058628699;0.85125
27.664161643974964;0.8515
27.67819258849671;0.85175
27.68042341982636;0.852
27.721054137938076;0.85225
27.733384742805967;0.8525
27.622315234404212;0.85275
27.552945612706953;0.853
27.626975877688373;0.85325
27.610906029322635;0.8535
27.78483606758394;0.85375
27.797165992446452;0.854
27.94609580388438;0.85425
27.93512550187193;0.8545
27.78235508638332;0.85475
27.78968455739275;0.855
27.83861391487446;0.85525
27.785943158802688;0.8555
27.671572289151662;0.85575
27.67720130589565;0.856
27.65453020900889;0.85625
27.648458998465653;0.8565
27.585787674240212;0.85675
27.60801623630684;0.857
27.643644684639835;0.85725
27.64597301921347;0.8575
27.63830124000206;0.85775
27.638929346979914;0.858
27.667857340121344;0.85825
27.670185219400675;0.8585
27.72081298479224;0.85875
27.721440636270366;0.859
27.492068173809404;0.85925
27.474295597383712;0.8595
27.186622906967642;0.85975
27.18725010253557;0.86
27.38287718406187;0.86025
27.39350415152091;0.8605
27.612431004887107;0.86075
27.621457744134837;0.861
27.695384369238507;0.86125
27.67771088017254;0.8615
27.61493727691134;0.86175
27.64896355942935;0.862
27.579589727701002;0.86225
27.566815781700733;0.8625
27.51084172140299;0.86275
27.539767546782233;0.863
27.62369325781293;0.86325
27.626018854469553;0.8635
27.64164433672657;0.86375
27.642269704558487;0.864
27.647894957939776;0.86425
27.645220096844966;0.8645
27.650845121248544;0.86475
27.648070031125027;0.865
27.588694826448958;0.86525
27.587719507194848;0.8655
27.61834407333725;0.86575
27.6189685248507;0.866
27.62619286170976;0.86625
27.625217083888998;0.8665
27.61244119136297;0.86675
27.61646518410625;0.867
27.612089062093435;0.86725
27.611012825299113;0.8675
27.614936473697874;0.86775
27.61226000726434;0.868
27.616183425973105;0.86825
27.618506729798813;0.8685
27.614129918716074;0.86875
27.614752992699536;0.869
27.62037595172384;0.86925
27.619298795763626;0.8695
27.624921524793578;0.86975
27.62394413878834;0.87
27.632866637722596;0.87025
27.630189021571024;0.8705
27.640811290308314;0.87075
27.638033443909165;0.871
27.617055482348277;0.87125
27.617677405600364;0.8715
27.62329921364014;0.87175
27.620520906442344;0.872
27.6811424839817;0.87225
27.683463946232955;0.8725
27.79408529317085;0.87275
27.603006524770144;0.873
27.865327641005607;0.87325
27.905948641852;0.8735
28.061569527284114;0.87375
27.970490297276736;0.874
27.794510951804643;0.87425
27.788431490842658;0.8745
27.677351914365584;0.87475
27.674672222348224;0.875
27.631992414765417;0.87525
27.632612491592;0.8755
27.644832452802795;0.87575
27.64715229837266;0.876
27.64277202827645;0.87625
27.641691642489018;0.8765
27.579011140985244;0.87675
27.566330523739996;0.877
27.590249790728166;0.87725
27.594168941924647;0.8775
27.634787977304327;0.87775
27.638806896842127;0.878
27.69102570051296;0.87825
27.691644388291742;0.8785
27.7122629601534;0.87875
27.714581416072885;0.879
27.67349975602513;0.87925
27.669117979985096;0.8795
27.54143608792774;0.87975
27.540354079828028;0.88
27.572671955660933;0.88025
27.57658971540145;0.8805
27.610607359024556;0.88075
27.61282488650525;0.881
27.653442297818547;0.88125
27.657459592939453;0.8815
27.714676771842996;0.88175
27.73869383450419;0.882
27.685910780898084;0.88225
27.67822761099972;0.8825
27.590544324784144;0.88275
27.627760922226415;0.883
27.59507740330161;0.88325
27.60569376798479;0.8835
27.669610016251035;0.88375
27.675226148075442;0.884
27.800842163433114;0.88425
27.809858062299135;0.8845
27.698773844648635;0.88475
27.686089510456718;0.885
27.466705059698533;0.88525
27.518920492349196;0.8855
27.43953580838385;0.88575
27.41685100777765;0.886
27.84246609050576;0.88625
27.92808105654333;0.8865
27.361995905865548;0.88675
27.47601063844758;0.887
27.581625254264623;0.88725
27.595539753291867;0.8875
27.72615413550452;0.88775
27.68346840087779;0.888
27.652382549386896;0.88825
27.726296581007066;0.8885
27.678610495713528;0.88875
27.679224293481518;0.889
27.718137974286307;0.88925
27.698751538103128;0.8895
27.692764984907257;0.88975
27.694978314673968;0.89
27.727291527378526;0.89025
27.70290462299623;0.8905
27.72021760150237;0.89075
27.72083046287225;0.891
27.73304320708118;0.89125
27.732055834104482;0.8915
27.740968343917462;0.89175
27.73988073649548;0.892
27.730493011813856;0.89225
27.73280516984795;0.8925
27.741717210573107;0.89275
27.744029133964695;0.893
27.764640939998085;0.89325
27.76855262864866;0.8935
27.785864199891797;0.89375
27.7864756537029;0.894
27.77538699005736;0.89425
27.7726982089306;0.8945
27.72830931029802;0.89475
27.725620294135055;0.895
27.67623116041713;0.89525
27.6751419091197;0.8955
27.639052540218188;0.89575
27.639663053688075;0.896
27.65697344950481;0.89625
27.659283727643864;0.8965
27.526493888080715;0.89675
27.518803930790845;0.897
27.46611385574976;0.89725
27.513323662932955;0.8975
27.648933352315932;0.89775
27.654542923874217;0.898
27.73855237758332;0.89825
27.74076171341879;0.8985
27.758070931356162;0.89875
27.756980031370983;0.899
27.754289013438797;0.89925
27.75489787753518;0.8995
27.760506623635692;0.89975
27.76111525171592;0.9
27.72672376175144;0.90025
27.717332153717855;0.9005
27.75294042759076;0.90075
27.75354858334577;0.901
27.75745662095849;0.90125
27.753064540404555;0.9015
27.768672341659588;0.90175
27.774280024699245;0.902
27.70328758949915;0.90225
27.705495036034968;0.9025
27.749502364282367;0.90275
27.77840957421701;0.903
27.74231666581458;0.90325
27.72962363905076;0.9035
27.655230493901247;0.90375
27.68083723034173;0.904
27.748143848347937;0.90425
27.75035034789557;0.9045
27.764356728960358;0.90475
27.76156299151803;0.905
27.752169135544328;0.90525
27.754475161015005;0.9055
27.7450810679058;0.90575
27.747386856192495;0.906
27.741292525850856;0.90625
27.741898076856646;0.9065
27.740803509185668;0.90675
27.739808822813714;0.907
27.745414017716577;0.90725
27.744319093870075;0.9075
27.749924051250023;0.90775
27.74722888983223;0.908
27.752833609592553;0.90825
27.753438210506825;0.9085
27.750642692550876;0.90875
27.754647055700588;0.909
27.750251299931804;0.90925
27.754155425220418;0.9095
27.74975943154228;0.90975
27.75366331887329;0.91
27.750967087189352;0.91025
27.751570736466352;0.9105
27.757174266680217;0.91075
27.756077677806843;0.911
27.751680969822175;0.91125
27.755684142702137;0.9115
27.751287196422666;0.91175
27.753490130959722;0.912
27.750792946289252;0.91225
27.75309564238723;0.9125
27.750298219229617;0.91275
27.749300676792398;0.913
27.753203015051554;0.91325
27.750505233983095;0.9135
27.756107333563016;0.91375
27.75170931376732;0.914
27.75731117457203;0.91425
27.752912915953182;0.9145
27.7585145378868;0.91475
27.759116040348935;0.915
27.754717423315626;0.91525
27.755318686762934;0.9155
27.76251983066692;0.91575
27.756520855003675;0.916
27.76042175974926;0.91625
27.75932254487977;0.9165
27.7666232103713;0.91675
27.76552375619996;0.917
27.772824182341864;0.91725
27.77172448877312;0.9175
27.767324675469858;0.91775
27.766324742408223;0.918
27.771924689564347;0.91825
27.765824516914396;0.9185
27.75642422443451;0.91875
27.75702381210087;0.919
27.740923279889643;0.91925
27.74152262777701;0.9195
27.752121855739162;0.91975
27.751120963752307;0.92
27.76501995179264;0.92025
27.77061881983638;0.9205
27.761217567859738;0.92075
27.76181619583895;0.921
27.744114703750252;0.92125
27.738013091569893;0.9215
27.746911359274122;0.92175
27.750909506839207;0.922
27.778107534241396;0.92225
27.778705441456985;0.9225
27.80600322846225;0.92275
27.80490089523348;0.923
27.808898441746976;0.92325
27.806095867979046;0.9235
27.77339317390601;0.92375
27.770690359504187;0.924
27.6745874247499;0.92425
27.665184369619503;0.9245
27.69248119408933;0.92475
27.696377898135736;0.925
27.770274481735086;0.92525
27.77427094486376;0.9255
27.821467287498116;0.92575
27.825463509614558;0.926
27.872659611189466;0.92625
27.87665559219925;0.9265
27.925551452620315;0.92675
27.924447192429078;0.927
27.84344281160196;0.92725
27.7890383101154;0.9275
27.866233687945844;0.92775
27.853528945069733;0.928
27.98912408146352;0.92825
27.979719097103672;0.9285
28.08701399196666;0.92875
28.145908766028967;0.929
27.78150341926708;0.92925
27.800397951657494;0.9295
27.955992363176712;0.92975
27.936586653801246;0.93
27.928880823507615;0.93025
27.934474872272347;0.9305
27.861768800071975;0.93075
27.850662606883038;0.931
27.7895562926821;0.93125
27.795149857445708;0.9315
27.830743301150427;0.93175
27.833036623772838;0.932
27.816929825289513;0.93225
27.815922905677063;0.9325
27.794815864912067;0.93275
27.795408702971137;0.933
27.784301419830882;0.93325
27.786594015467934;0.9335
27.778886489858905;0.93375
27.78107884298046;0.934
27.775071074809215;0.93425
27.778963185321842;0.9345
27.774555174494992;0.93475
27.77514704230535;0.935
27.77903878872957;0.93525
27.78133041374435;0.9355
27.778621917326376;0.93575
27.78081329945236;0.936
27.819804560099;0.93625
27.820395699243022;0.9365
27.70258671686114;0.93675
27.708177612930083;0.937
27.74716838742661;0.93725
27.75105904032745;0.9375
27.77664957160937;0.93775
27.777239981249124;0.938
27.78453026922349;0.93825
27.78342043550926;0.9385
27.779010480083194;0.93875
27.781300402922113;0.939
27.778490204002807;0.93925
27.78247988330209;0.9395
27.776369440796785;0.93975
27.775258876463713;0.94
27.782548190279705;0.94025
27.77813738222162;0.9405
27.785426452266293;0.94075
27.784315400390597;0.941
27.78160422657139;0.94125
27.785492930785544;0.9415
27.79108151300995;0.94175
27.789969973221492;0.942
27.79555831139707;0.94225
27.792846527513596;0.9425
27.798434621547983;0.94275
27.795722593477144;0.943
27.80291044327802;0.94325
27.801898170927544;0.9435
27.807485776402658;0.94375
27.808073259680334;0.944
27.80366062073751;0.94425
27.80754785955118;0.9445
27.8014349760983;0.94475
27.80542197035587;0.945
27.801008842300877;0.94525
27.804895591910334;0.9455
27.828782219161234;0.94575
27.831068724030608;0.946
27.86665510649547;0.94625
27.868941366532873;0.9465
27.89282750411984;0.94675
27.89841351923343;0.947
27.887299411850698;0.94725
27.886285181948708;0.9475
27.820170829504537;0.94775
27.815756354495264;0.948
27.73634175689798;0.94825
27.731927036689783;0.9485
27.750812193847775;0.94875
27.75479722834907;0.949
27.840382140170796;0.94925
27.845966929290075;0.9495
27.92815159568405;0.94975
27.928736139329864;0.95
27.67932056020467;0.95025
27.663304858285628;0.9505
27.405489033549905;0.95075
27.40777308597469;0.951
27.60165701553715;0.95125
27.612240822214495;0.9515
27.834524505983914;0.95175
27.843408066822633;0.952
27.980691504707856;0.95225
27.9762748196168;0.9525
27.91515801152672;0.95275
27.912441080414844;0.953
27.79632402625842;0.95325
27.723606849034713;0.9535
27.969189548720987;0.95375
28.046472125294507;0.954
27.62705457873256;0.95425
27.83263690901244;0.9545
27.94151911611143;0.95475
27.942101200006853;0.955
27.954383160676016;0.95525
27.951564998096224;0.9555
27.917146712244836;0.95575
27.916128303099164;0.956
27.826709770636572;0.95625
27.823891114834403;0.9565
27.84617233567002;0.95675
27.848453433120792;0.957
27.8606344071641;0.95725
27.862915257777328;0.9575
27.856795984937868;0.95775
27.85577658862312;0.958
27.844657068810495;0.95825
27.84193742547741;0.9585
27.8491176586013;0.95875
27.849697768159587;0.959
27.861977754129718;0.95925
27.86085761648913;0.9595
27.871437355215306;0.95975
27.87041697028569;0.96
27.877596461677776;0.96025
27.876575829369024;0.9605
27.883755073336935;0.96075
27.879334193559004;0.961
27.886613190012746;0.96125
27.88389206267566;0.9615
27.892770811525278;0.96175
27.893349436539133;0.962
27.897227937694762;0.96225
27.9012063149697;0.9625
27.896784568341516;0.96275
27.898962697787763;0.963
27.887940703286013;0.96325
27.886818584813845;0.9635
27.84239634234885;0.96375
27.842973975868617;0.964
27.815251485350757;0.96425
27.815828870772865;0.9645
27.843006132112578;0.96475
27.843583269347512;0.965
27.889160282455308;0.96525
27.889737171413604;0.9655
27.902013936200042;0.96575
27.900890576792307;0.966
27.87816709316805;0.96625
27.87544348530494;0.9665
27.886019753180676;0.96675
27.88489589677294;0.967
27.902171916059434;0.96725
27.901047811017865;0.9675
27.93332358162595;0.96775
27.93549922786141;0.968
27.96607474970198;0.96825
27.963350147125393;0.9685
27.775625420109414;0.96875
27.739500568631783;0.969
27.77337559267027;0.96925
27.780650492202646;0.9695
27.87122526720669;0.96975
27.8750999176602;0.97
27.90067444354096;0.97025
27.904648844826788;0.9705
27.898523121495487;0.97075
27.899097273524877;0.971
27.89297130089279;0.97125
27.89694520357706;0.9715
27.900818981555542;0.97175
27.89969263480608;0.972
27.893666163306545;0.97225
27.897539567034798;0.9725
27.89141284596872;0.97275
27.893686000086195;0.973
27.89755902936512;0.97325
27.896531933783386;0.9735
27.89210471331893;0.97375
27.89597736794964;0.974
27.889849897653455;0.97425
27.890422302408314;0.9745
27.88269458219215;0.97475
27.888266736982928;0.975
27.885538766758593;0.97525
27.886110671497114;0.9755
27.891682451176475;0.97575
27.890554105774648;0.976
27.886125635269636;0.97625
27.88669703963943;0.9765
27.890568318862037;0.97675
27.88953947291548;0.977
27.896710501777783;0.97725
27.89568140542697;0.9775
27.901252183841088;0.97775
27.900122836998175;0.978
27.9206933648763;0.97825
27.922963767453528;0.9785
27.95513404470792;0.97875
27.957404196617567;0.979
27.974674223160555;0.97925
27.980244124314975;0.9795
27.969113900058943;0.97975
27.96968355037057;0.98
27.925253075227978;0.98025
27.92252247460929;0.9805
27.87309174849265;0.98075
27.870260896856202;0.981
27.837529919678104;0.98125
27.839798816936515;0.9815
27.851967588609604;0.98175
27.85093623467555;0.982
27.691504755112547;0.98225
27.652073149898783;0.9825
27.70264141901246;0.98275
27.706509562431798;0.983
27.85537758013501;0.98325
27.860945472100326;0.9835
27.93491323830598;0.98375
27.93708087873022;0.984
27.954348393351292;0.98425
27.954915782147463;0.9845
27.967183045097;0.98475
27.967750182178175;0.985
27.988317193369276;0.98525
27.990484078648596;0.9855
27.961050837994442;0.98575
27.956617471385115;0.986
27.98058397879894;0.98625
27.97775036021424;0.9865
27.93671661560935;0.98675
27.93228274496261;0.987
27.97444874825237;0.98725
27.963414625456988;0.9875
28.03058037655484;0.98775
27.887846001524288;0.988
28.238411500343727;0.98825
28.42227687299154;0.9885
28.26454211944613;0.98875
28.2384072396859;0.989
28.01897223368928;0.98925
28.017937101434676;0.9895
27.930101842900534;0.98975
27.93406645806529;0.99
27.981230946907395;0.99025
27.985195309405302;0.9905
28.04235954553748;0.99075
28.041323655282397;0.991
27.95688763861854;0.99125
27.9524514955244;0.9915
27.85631522597847;0.99175
27.986878829959267;0.992
27.855742307445286;0.99225
27.851305658415065;0.9925
28.145268882847134;0.99275
28.080831980720035;0.993
27.522994952012308;0.99325
27.84195779670251;0.9935
27.889120514769196;0.99375
27.86138310619096;0.994
27.933645570946368;0.99425
27.93920790901401;0.9945
27.979770120372482;0.99475
27.958632205000395;0.995
28.045894162876355;0.99525
28.048055993978988;0.9955
28.002017698286927;0.99575
27.994179275778805;0.996
28.03974072643326;0.99625
28.032002050228964;0.9965
27.867563247144567;0.99675
27.896424317158747;0.997
28.05198526025018;0.99725
28.06594607639755;0.9975
28.256506765579562;0.99775
28.26536732777491;0.998
28.08422776296231;0.99825
28.08318807112049;0.9985
28.117048252228166;0.99875
28.095908306264086;0.999
28.024868233206984;0.99925
28.037028033035625;0.9995
28.052587705728758;0.99975
28.043147251265168;1.0
27.958706669623616;1.00025
27.960965960782907;1.0005
27.989825124721825;1.00075
28.057084161419176;1.001
27.990943070853767;1.00125
27.954901853004422;1.0015
27.952060507849968;1.00175
27.844319035369235;1.002
27.82657743554108;1.00225
27.852135708344345;1.0025
27.855993853757894;1.00275
27.9148518717606;1.003
27.917109762331332;1.00325
27.939367525448986;1.0035
27.939925161092447;1.00375
27.96208266924063;1.004
27.981040049872433;1.00425
27.949897302966768;1.0045
27.93545442850258;1.00475
27.9710114264588;1.005
27.97486829681437;1.00525
28.008825039548235;1.0055
28.00938165463937;1.00575
27.911538142066732;1.006
27.858794501809296;1.00625
27.95935073384605;1.0065
28.073206838155997;1.00675
27.75876281471813;1.007
27.771018663511455;1.00725
27.926574384515003;1.0075
27.93382997770779;1.00775
27.98438544306886;1.008
27.988240780577236;1.00825
27.977095990211993;1.0085
27.97765107195218;1.00875
27.96490602577687;1.009
27.96716085166514;1.00925
27.974315549596064;1.0095
27.971570119548744;1.00975
27.96042456150228;1.01
27.95937887543578;1.01025
27.94993306132837;1.0105
27.952087119159163;1.01075
27.947641048907307;1.011
27.951594850551928;1.01125
27.9454485240722;1.0115
27.949302069447263;1.01175
27.944855486656294;1.012
27.945408775678477;1.01225
27.952661936492976;1.0125
27.951514969078996;1.01275
27.968767873415743;1.013
27.969320649482416;1.01325
27.98317329725824;1.0135
27.98372581672244;1.01375
28.000978207854253;1.014
28.02983047063291;1.01425
27.945382605037683;1.0145
27.93593461104781;1.01475
27.89818648864257;1.015
27.92043823780124;1.01525
27.959289858503098;1.0155
27.96314135072744;1.01575
27.99539271445358;1.016
27.997643949660805;1.01625
28.049795056328445;1.0165
28.06204603443583;1.01675
27.98929688396229;1.017
27.983147604887165;1.01725
27.831998197189808;1.0175
27.78754866084958;1.01775
27.833098995845855;1.018
27.838649202158003;1.01825
27.909199279765403;1.0185
27.913149228647452;1.01875
27.95029904878356;1.019
27.949248740153127;1.01925
27.969798302735583;1.0195
27.973647736510337;1.01975
28.01419704145684;1.02
28.016446217554524;1.02025
28.13029526478285;1.0205
28.137544183121268;1.02075
27.978092972549252;1.021
27.97524163304628;1.02125
27.93749016459184;1.0215
27.941338567165417;1.02175
28.040286840746518;1.022
28.04583498531465;1.02225
28.056383000849337;1.0225
28.040230887330093;1.02275
28.109078644736474;1.023
28.114626273048007;1.02325
28.233573772244252;1.0235
28.26412114230477;1.02375
28.15296838320912;1.024
28.136815494936894;1.02425
27.680762477467674;1.0245
27.679609330781048;1.02475
28.03015605485661;1.025
27.97570264967399;1.02525
28.116249115212803;1.0255
28.143495451452665;1.02575
28.54064165837323;1.026
28.54958773595412;1.02625
28.245133684175002;1.0265
28.237279503015543;1.02675
28.121225192455398;1.027
28.11177075247425;1.02725
27.938916183051795;1.0275
27.942861484167715;1.02775
28.040006655801715;1.028
28.042251697933516;1.02825
28.06609661054283;1.0285
28.065041393609384;1.02875
28.032186047112923;1.029
28.031130571033184;1.02925
28.021674965349924;1.0295
28.022219230042904;1.02975
27.952763365091897;1.03
27.94490737047668;1.03025
28.007151246177038;1.0305
28.009394992172773;1.03075
28.053238608443685;1.031
28.05378209496959;1.03125
28.077625451730306;1.0315
28.083168678705654;1.03175
28.065411775875486;1.032
28.064254743219642;1.03225
27.99649758071798;1.0325
27.99374028835036;1.03275
27.93588286609665;1.033
27.936425313936745;1.03325
27.92536763185051;1.0335
27.925909819817857;1.03375
27.934751877818695;1.034
27.935293805832924;1.03425
27.914135603840478;1.0345
27.914677271821283;1.03475
27.891918809755275;1.035
27.914160217622403;1.03525
27.84130149540263;1.0355
27.836842643075915;1.03575
27.767383660622226;1.036
27.771324548021546;1.03625
27.915165305253876;1.0365
27.924005932299206;1.03675
28.06624642913754;1.037
28.105086795748893;1.03725
28.054027032113293;1.0375
28.04956713821077;1.03775
28.01670711402136;1.038
28.02564695952512;1.03825
28.3277866747021;1.0385
28.20332625953237;1.03875
27.86056571399601;1.039
28.04940503807309;1.03925
28.12664423174371;1.0395
28.125483294987962;1.03975
28.132722227785962;1.04
28.126561030117827;1.04025
28.107099701963676;1.0405
28.10603824330364;1.04075
28.019876654117873;1.041
28.020414934386515;1.04125
28.05425308408973;1.0415
28.084791103207678;1.04175
28.055328991720543;1.042
28.044266749608514;1.04225
27.96480437685177;1.0425
27.988641873430517;1.04275
28.05247923932497;1.043
28.05301647451534;1.04325
28.06355357898186;1.0435
28.059090552704767;1.04375
28.053027395664294;1.044
28.053564107840707;1.04425
28.050700689214253;1.0445
28.05463713976521;1.04475
28.051773459473843;1.045
28.05400964832046;1.04525
28.047845706285337;1.0455
28.05508163334879;1.04575
28.04891742949112;1.046
28.05115309469265;1.04625
28.056688628933713;1.0465
28.052224032194644;1.04675
28.056059304455786;1.047
28.053294445697492;1.04725
28.057129455900128;1.0475
28.059364335044066;1.04775
28.05489908310969;1.048
28.06043370007737;1.04825
28.055968185927526;1.0485
28.05980254064054;1.04875
28.05533676419685;1.049
28.059270856576852;1.04925
28.063104817760998;1.0495
28.058638647729715;1.04975
28.06417234646346;1.05
28.06470591394268;1.05025
28.060239350147853;1.0505
28.06907265505943;1.05075
28.06460582865791;1.051
28.06683887092378;1.05125
28.07407178183754;1.0515
28.072904561379694;1.05175
28.076737209530755;1.052
28.07896972627126;1.05225
28.074502111581726;1.0525
28.073334365442697;1.05275
28.078866487834734;1.053
28.077798478738387;1.05325
28.058330338134226;1.0535
28.05386206600282;1.05375
28.06269366232477;1.054
28.06492512708065;1.05425
28.078756460251064;1.0545
28.077587661816622;1.05475
28.086518731757963;1.055
28.085349670055685;1.05525
28.10588047669043;1.0555
28.11811115164285;1.05575
28.1019416948936;1.056
28.09917210642333;1.05625
28.03300238621271;1.0565
28.031832534242433;1.05675
28.04906255049317;1.057
28.047892434945616;1.05725
28.033422187580484;1.0575
28.02895180837848;1.05775
28.037881297320332;1.058
28.040010654386762;1.05825
28.0689398795585;1.0585
28.07106897281631;1.05875
28.101597934140933;1.059
28.102126763513144;1.05925
28.109355460913708;1.0595
28.10488402632341;1.05975
28.10041245972303;1.06
28.102640761093376;1.06025
28.096468930415256;1.0605
28.096996967669465;1.06075
28.112524872836847;1.061
28.11135264589823;1.06125
28.13688028683445;1.0615
28.14410779562636;1.06175
28.099635172254814;1.062
28.09346241670069;1.06225
28.017389528944843;1.0625
28.02451650896817;1.06275
28.106743356751558;1.063
28.110570072275905;1.06325
28.18449665552213;1.0635
28.186623106471146;1.06375
28.233849425103884;1.064
28.241075611401264;1.06425
28.07660166534424;1.0645
28.070427586913773;1.06475
28.1392533760908;1.065
28.126479032856317;1.06525
28.362004557191277;1.0655
28.450829949076688;1.06575
28.364755208493534;1.066
28.35688033542282;1.06625
28.279105329845553;1.0665
28.319630191742768;1.06675
28.245154921095477;1.067
28.23737951788473;1.06725
28.197903982091574;1.0675
28.200028313697054;1.06775
28.093952512682247;1.068
28.081076579028213;1.06825
28.091600512716038;1.0685
28.092124313726817;1.06875
28.12934798204164;1.069
28.13317151764162;1.06925
28.117094920507867;1.0695
28.117618190621513;1.06975
28.076441327963682;1.07
28.076964332515516;1.07025
28.03248720425817;1.0705
28.031309943172808;1.07075
28.015232549240576;1.071
28.01575502244267;1.07125
28.049577362760267;1.0715
28.053399570174562;1.07175
28.117321644666745;1.072
28.134443586218044;1.07225
28.04996539480967;1.0725
28.028887070422847;1.07275
28.069408613038817;1.073
28.04493002263882;1.07325
28.072051299204112;1.0735
28.074272442715955;1.07375
28.133093453155613;1.074
28.13701433050438;1.07425
28.174135074743525;1.0745
28.14465568585436;1.07475
27.956876163818183;1.075
27.919096508616313;1.07525
27.991216720230067;1.0755
28.10343679864077;1.07575
27.98225674382978;1.076
28.399476555778424;1.07625
27.86329623446808;1.0765
27.85051577988009;1.07675
28.152735191995852;1.077
28.10985447079673;1.07725
28.14877361626413;1.0775
28.124292628379436;1.07775
28.153111507124077;1.078
28.14863025247945;1.07825
28.072448864426995;1.0785
28.157967342948144;1.07875
28.07018568802434;1.079
28.05070389963703;1.07925
28.214521977767674;1.0795
28.31003992239775;1.07975
27.980557733508732;1.08
27.984475411082112;1.08025
28.11329295509937;1.0805
28.11711036554202;1.08075
28.172627642391582;1.081
28.173144785629567;1.08125
28.185361795237505;1.0815
28.18587867119694;1.08175
28.171395413489414;1.082
28.181912022096487;1.08225
28.17412849699972;1.0825
28.176244838180686;1.08275
28.168461045620976;1.083
28.173977119302172;1.08325
28.164493059205878;1.0835
28.165008865313695;1.08375
28.128824537607237;1.084
28.12934007606815;1.08425
28.124855480678043;1.0845
28.12877075141858;1.08475
28.14258588827139;1.085
28.148100891218153;1.08525
28.14361576024053;1.0855
28.14743049532019;1.08575
28.142945096438837;1.086
28.145159563578154;1.08625
28.158973896719846;1.0865
28.159488095845624;1.08675
28.198402160937214;1.087
28.170516091976342;1.08725
28.077729888944738;1.0875
28.09494355182417;1.08775
28.135457080596375;1.088
28.137570475243123;1.08825
28.161483735746188;1.0885
28.163596862087346;1.08875
28.159109854248403;1.089
28.16132271221114;1.08925
28.158535435957372;1.0895
28.159048025468916;1.08975
28.164560480727598;1.09
28.161672801715252;1.09025
28.165584988413713;1.0905
28.162697040804844;1.09075
28.166608958870498;1.091
28.167120742592545;1.09125
28.160932391952866;1.0915
28.161443906933343;1.09175
28.165255287515865;1.092
28.16746653368235;1.09225
28.1596776454147;1.0925
28.16018862269484;1.09275
28.142299465504696;1.093
28.142810173826206;1.09325
28.133320747641324;1.0935
28.138831186932002;1.09375
28.166041491680204;1.094
28.1682516618679;1.09425
28.213761697477075;1.0945
28.214271598489724;1.09475
28.064781364887843;1.095
28.050290996653438;1.09525
28.130800493768525;1.0955
28.15630985621514;1.09575
28.076819083975302;1.096
28.06392817703107;1.09625
28.10443713536448;1.0965
28.109945958957606;1.09675
28.18545464779251;1.097
28.190963201851275;1.09725
28.24987162111598;1.0975
28.250379905568728;1.09775
28.29418805519161;1.098
28.094696069966762;1.09825
28.481903949876287;1.0985
28.51901169490233;1.09875
28.46121930502701;1.099
28.45842678023249;1.09925
28.327234120500925;1.0995
28.32104132581448;1.09975
28.228248396155323;1.1
28.22705533150565;1.10025
28.18596213184764;1.1005
28.186468797163496;1.10075
28.16357532743543;1.101
28.162481722645666;1.10125
28.14628798277642;1.1015
28.14009410780993;1.10175
28.147300097728447;1.102
28.14280595251421;1.10225
28.150011672149493;1.1025
28.148817256616564;1.10275
28.144322705897693;1.103
28.14982801997519;1.10325
28.145333198831324;1.1035
28.145838242448427;1.10375
28.151343150808792;1.104
28.150147923894753;1.10425
28.145652561688642;1.1045
28.147857064172793;1.10475
28.143361431329566;1.105
28.14556566314131;1.10525
28.147669759590393;1.1055
28.149873720659194;1.10575
28.1570775463301;1.106
28.155881236585493;1.10625
28.151384791407786;1.1065
28.153588210779382;1.10675
28.16069149468271;1.107
28.15959464310019;1.10725
28.168397656014257;1.1075
28.165600533407364;1.10775
28.174403275261966;1.108
28.176605881560526;1.10825
28.170408352285513;1.1085
28.170910687419404;1.10875
28.176412886944696;1.109
28.17521495084389;1.10925
28.169116879099494;1.1095
28.16961867169401;1.10975
28.165120328609973;1.11
28.165621849829922;1.11025
28.15772323533639;1.1105
28.159924485111933;1.11075
28.150425599139112;1.111
28.15262657740049;1.11125
28.146427419878652;1.1115
28.14522812655618;1.11175
28.15572869741567;1.112
28.154629132439734;1.11225
28.16342943161097;1.1125
28.16392959491201;1.11275
28.169429622325488;1.113
28.169929513834035;1.11325
28.165429269420294;1.1135
28.169228889066936;1.11375
28.199728372756624;1.114
28.201927720472025;1.11425
28.23572693219583;1.1145
28.23792600791073;1.11475
28.25512494759942;1.115
28.25722375124461;1.11525
28.234422418829034;1.1155
28.2349209503354;1.11575
28.187119345746453;1.116
28.187617605044938;1.11625
28.139715728213613;1.1165
28.13191371523523;1.11675
28.144111566092572;1.117
28.154609280768405;1.11725
28.128406859245537;1.1175
28.123904301506755;1.11775
27.95270160753487;1.118
27.95819877731269;1.11825
