14.968070731310432;0.00025
14.96774133252269;0.0005
14.969111803538597;0.00075
14.975482144259981;0.001
14.976852354588669;0.00125
14.974922434426478;0.0015
14.97789238367524;0.00175
14.97766220223678;0.002
14.979031890012923;0.00225
14.977001446905492;0.0025
14.980070872816317;0.00275
14.974740167647218;0.003
14.976109331300025;0.00325
14.980878363676561;0.0035
14.978847264678652;0.00375
14.97521603420813;0.004
14.976584672166812;0.00425
14.972953178456526;0.0045
14.972721552979104;0.00475
14.96908979563637;0.005
14.970457906330145;0.00525
14.966825884962258;0.0055
14.968193731434539;0.00575
14.972861445648812;0.006
14.970929027506905;0.00625
14.975596476910647;0.0065
14.976963793761861;0.00675
14.980030977962377;0.007
14.981398029414022;0.00725
14.984364948018623;0.0075
14.98413173367801;0.00775
14.987098386294008;0.008
14.985164905768446;0.00825
14.991531292003154;0.0085
14.99289754489996;0.00875
14.999263664360692;0.009
14.998929650287183;0.00925
15.010295502581256;0.0095
15.011661221144747;0.00975
15.018026805879481;0.01
15.019392256687288;0.01025
15.025757573470003;0.0105
15.027122756129451;0.01075
15.035187804567467;0.011
15.03485271868588;0.01125
15.04461749838652;0.0115
15.047582143571223;0.01175
15.057346654141815;0.012
15.058711030000133;0.01225
15.073375271048008;0.0125
15.074739377187269;0.01275
15.084403348319755;0.013
15.087467184347297;0.01325
15.083830885171729;0.0135
15.083494450694882;0.01375
15.058257880818594;0.014
15.057921175444699;0.01425
15.03428433447503;0.0145
15.035647357811424;0.01475
15.02531024535572;0.015
15.026672997009749;0.01525
15.029735612675347;0.0155
15.029398092254354;0.01575
15.037460435648605;0.016
15.038822642759941;0.01625
15.045184713490197;0.0165
15.044846647741213;0.01675
15.044608445414829;0.017
15.045970106412879;0.01725
15.042331630637205;0.0175
15.04369301798965;0.01775
15.038354268372052;0.018
15.03971538168625;0.01825
15.02277635783409;0.0185
15.024137196717412;0.01875
14.995497898238057;0.019
14.995158462297866;0.01925
15.018218888798687;0.0195
15.02287917764236;0.01975
15.11923932873073;0.02
15.123899341965645;0.02025
15.148659217248944;0.0205
15.145018954482481;0.02075
15.11797855356809;0.021
15.121038014407628;0.02125
15.119097336902938;0.0215
15.120456520955868;0.02175
15.115115566468265;0.022
15.114774473341983;0.02225
15.121133241478864;0.0225
15.122491870780763;0.02275
15.132250361149527;0.023
15.133608712487009;0.02325
15.163266924695062;0.0235
15.166324997675535;0.02375
15.20098293133028;0.024
15.204040725561152;0.02425
15.135398380270006;0.0245
15.106755895358692;0.02475
15.401413270729073;0.025
15.459470506282996;0.02525
15.17242760192232;0.0255
15.442184557548906;0.02575
14.960141373064609;0.026
14.946498048371282;0.02625
14.76625458337079;0.0265
14.76421097796499;0.02675
14.870567232055743;0.027
14.878623345544908;0.02725
15.066679318334348;0.0275
15.074635150325925;0.02775
15.179390841421501;0.028
15.184046391522937;0.02825
15.217101800532104;0.0285
15.216757068350859;0.02875
15.178112194881072;0.029
15.177767180024606;0.02925
15.142522023683334;0.0295
15.142176725759116;0.02975
15.131831286153822;0.03
15.134885704769326;0.03025
15.146239981507494;0.0305
15.149294116270195;0.03075
15.165648108959305;0.031
15.167001959476693;0.03125
15.178355667724228;0.0315
15.179709233603791;0.03175
15.189362657017254;0.032
15.189015937866488;0.03225
15.19876907605337;0.0325
15.200122071479782;0.03275
15.2130749240476;0.033
15.214427633658698;0.03325
15.234180200214958;0.0335
15.235532623618258;0.03375
15.268484903770482;0.034
15.27153704057351;0.03425
15.326189033929218;0.0345
15.329240883739502;0.03475
15.385592589906237;0.035
15.42364415233131;0.03525
15.323295570916606;0.0355
15.307946845564015;0.03575
15.14769797617542;0.036
15.179048962652713;0.03625
15.37869980489778;0.0365
15.345050502812514;0.03675
15.306401056298807;0.037
15.309451465258547;0.03725
15.31910172959363;0.0375
15.313751849205948;0.03775
15.271801823997395;0.038
15.27145165386987;0.03825
15.211201338725267;0.0385
15.210850878465486;0.03875
15.165500272992421;0.039
15.165249522207978;0.03925
15.136598626014047;0.0395
15.136247584312539;0.03975
15.119296397005353;0.04
15.120645063994393;0.04025
15.115293585181561;0.0405
15.118341960468765;0.04075
15.117990189757911;0.041
15.119338272950904;0.04125
15.127386209949652;0.0415
15.127034000656067;0.04175
15.136681644972061;0.042
15.136429142799539;0.04225
15.149376494040414;0.0425
15.152423698596605;0.04275
15.162070756370024;0.043
15.163417667262586;0.04325
15.176464431176207;0.0435
15.179511048012804;0.04375
15.189157517674294;0.044
15.190503840062604;0.04425
15.200150015079647;0.0445
15.20149604262735;0.04475
15.207841922607633;0.045
15.20758765492242;0.04525
15.213933239473638;0.0455
15.215278676163212;0.04575
15.221623964893071;0.046
15.21796910556514;0.04625
15.222614098081355;0.0465
15.223958942343637;0.04675
15.230303638253927;0.047
15.231648185714155;0.04725
15.241292584626255;0.0475
15.24263683489216;0.04775
15.25238093641381;0.048
15.253724889093142;0.04825
15.265068692832093;0.0485
15.266412347532608;0.04875
15.269355853096624;0.049
15.272399209426084;0.04925
15.270442416422927;0.0495
15.273385473989107;0.04975
15.273128382026567;0.05
15.272771140437253;0.05025
15.279113749123113;0.0505
15.278756207986097;0.05075
15.283498516928155;0.051
15.281440675851243;0.05125
15.286182684657314;0.0515
15.285824543248319;0.05175
15.283866251526215;0.052
15.28680780939296;0.05225
15.284849216750514;0.0525
15.286190473500838;0.05275
15.28423157954589;0.053
15.283872534787632;0.05325
15.286913339128029;0.0535
15.284853992469046;0.05375
15.289594494712652;0.054
15.290934845760809;0.05425
15.288875045515491;0.0545
15.290215093878667;0.05475
15.289954990752307;0.055
15.292894736038384;0.05525
15.292634329638878;0.0555
15.293973771455756;0.05575
15.293613061391001;0.056
15.296652199346589;0.05625
15.301291185224501;0.0565
15.302630018926719;0.05675
15.310668700355222;0.057
15.312007229411998;0.05725
15.319945605999033;0.0575
15.321283830018308;0.05775
15.327621901371813;0.058
15.328959819961543;0.05825
15.336997585689483;0.0585
15.33833519845763;0.05875
15.342972658167975;0.059
15.344309964722514;0.05925
15.352347118023243;0.0595
15.35198411797216;0.05975
15.365020964471267;0.06
15.366357657422565;0.06025
15.377694196728054;0.0605
15.377330582289739;0.06075
15.387066814009627;0.061
15.388402891789724;0.06125
15.386338815532039;0.0615
15.389374585138583;0.06175
15.384010200511364;0.062
15.3853456615524;0.06225
15.375080968163703;0.0625
15.376416120247288;0.06275
15.369351117705174;0.063
15.370685960439381;0.06325
15.368720648351932;0.0635
15.37335518134484;0.06375
15.37638955932014;0.064
15.376023782179852;0.06425
15.364057849826002;0.0645
15.36369176216062;0.06475
15.336725519085737;0.065
15.338059120503388;0.06525
15.321092566315599;0.0655
15.324025856424408;0.06575
15.323758990731854;0.066
15.32509196913997;0.06625
15.329724791550804;0.0665
15.327757457866388;0.06675
15.334089967988772;0.067
15.332022321819995;0.06725
15.340054519262111;0.0675
15.33968656021716;0.06775
15.346018444587198;0.068
15.345750172274268;0.06825
15.362081743180433;0.0685
15.363413157207741;0.06875
15.378044414258254;0.069
15.381075514234022;0.06925
15.397406457037109;0.0695
15.39873724256958;0.06975
15.393367870733492;0.07
15.399698341430911;0.07025
15.384328654563905;0.0705
15.384058810034542;0.07075
15.316988807744893;0.071
15.318318647597028;0.07125
15.423048329493025;0.0715
15.425977853334949;0.07175
15.317307219024888;0.072
15.342036426464913;0.07225
15.409965475557108;0.0725
15.412994366203556;0.07275
15.43602309830634;0.073
15.437351671767544;0.07325
15.446980086489258;0.0735
15.45000834237357;0.07375
15.45633643932257;0.074
15.455964377238356;0.07425
15.445592156023018;0.0745
15.445319775578653;0.07475
15.433247235807363;0.075
15.432974536611244;0.07525
15.422601677892402;0.0755
15.423928659552937;0.07575
15.415255481494958;0.076
15.418282143620571;0.07625
15.416208645831885;0.0765
15.417534988031013;0.07675
15.42226117012007;0.077
15.423587192001168;0.07725
15.429913053576424;0.0775
15.42953875474796;0.07775
15.42256429541789;0.078
15.423889675488347;0.07825
15.41351489486145;0.0785
15.414839953439326;0.07875
15.396164851124102;0.079
15.39748958781791;0.07925
15.385514163422881;0.0795
15.386838577841152;0.07975
15.39146283097486;0.08
15.392786922726138;0.08025
15.405810852997131;0.0805
15.40873462168998;0.08075
15.42345822870683;0.081
15.424781673949823;0.08125
15.44110495732111;0.0815
15.444028078722843;0.08175
15.46205103805717;0.082
15.46337383522625;0.08225
15.481396470132234;0.0825
15.482718942677286;0.08275
15.487341252763557;0.083
15.48536340029322;0.08325
15.481685385168433;0.0835
15.483007207291363;0.08375
15.475928866564178;0.084
15.47725036288905;0.08425
15.471971696168149;0.0845
15.473292866303652;0.08475
15.471213873197733;0.085
15.472534716752573;0.08525
15.470555396870353;0.0855
15.473575913453253;0.08575
15.47149626640346;0.086
15.47281645562316;0.08625
15.475836481014545;0.0865
15.475456342479802;0.08675
15.485176039921127;0.087
15.484795573240714;0.08725
15.49111494234076;0.0875
15.492434147123468;0.08775
15.498753187491037;0.088
15.500072063345673;0.08825
15.503090774589579;0.0885
15.506009321124967;0.08875
15.510727702854048;0.089
15.510345919679029;0.08925
15.513363971502134;0.0895
15.51128185822557;0.08975
15.517599579751561;0.09
15.51731713598233;0.09025
15.523634526820098;0.0905
15.524951752167091;0.09075
15.53126881192554;0.091
15.532585705997676;0.09125
15.537202434285724;0.0915
15.536818996691927;0.09175
15.533135393118517;0.092
15.536151623467735;0.09225
15.529167687641827;0.0925
15.530483585543028;0.09275
15.520099317073589;0.093
15.521414882135758;0.09325
15.509430280631788;0.0935
15.510745512463927;0.09375
15.502060577534433;0.094
15.503375475745562;0.09425
15.497990206999578;0.0945
15.501004771198735;0.09475
15.505619168245307;0.095
15.503633398041552;0.09525
15.50994746048975;0.0955
15.509561355492158;0.09575
15.514175082951063;0.096
15.510488642768733;0.09625
15.513502034847448;0.0965
15.513115259089492;0.09675
15.512828315397146;0.097
15.514141203672693;0.09725
15.513753923818427;0.0975
15.515066475736631;0.09775
15.518078859329606;0.098
15.519391074499637;0.09825
15.524003121149029;0.0985
15.52531499918008;0.09875
15.524926708495096;0.099
15.526238248996373;0.09925
15.530949620586226;0.0995
15.53056082316696;0.09975
15.526871856640888;0.1
15.529882720910326;0.10025
15.527793415877591;0.1005
15.527503941445001;0.10075
15.512114297514879;0.101
15.513424483989546;0.10125
15.508034500771336;0.1015
15.509344347762568;0.10175
15.512354024865584;0.102
15.51536353198271;0.10225
15.51997286901629;0.1025
15.521282035868657;0.10275
15.530891032442158;0.103
15.532199858639132;0.10325
15.538508514361927;0.1035
15.539816999512897;0.10375
15.54452531399439;0.104
15.547433457708761;0.10425
15.562141430558368;0.1045
15.563449232445567;0.10475
15.571356863272724;0.105
15.571064322942204;0.10525
15.56397161135637;0.1055
15.565278728417596;0.10575
15.509985674028252;0.106
15.507892448090711;0.10625
15.424199050507358;0.1065
15.422205481180566;0.10675
15.45521174001272;0.107
15.461517826906205;0.10725
15.571123741763408;0.1075
15.577429484486725;0.10775
15.658735054978543;0.108
15.66174045314126;0.10825
15.671345678877277;0.1085
15.66265073208899;0.10875
15.630655612678808;0.109
15.631960320549135;0.10925
15.61656485560238;0.1095
15.617869217740955;0.10975
15.612473406867279;0.11
15.615477422883762;0.11025
15.613481265692826;0.1105
15.613084935196897;0.11075
15.622688431298396;0.111
15.623991753899757;0.11125
15.630294902903405;0.1115
15.629997878211777;0.11175
15.636300679727304;0.112
15.63760330735243;0.11225
15.657205760989598;0.1125
15.673508040541249;0.11275
15.656510145909829;0.113
15.607812076997792;0.11325
15.76071383370759;0.1135
15.872015415941675;0.11375
15.585016823602508;0.114
15.82961805659255;0.11425
15.417619114814265;0.1145
15.402219998170118;0.11475
15.348520706562581;0.115
15.351521239894126;0.11525
15.501121598067227;0.1155
15.50582178098436;0.11575
15.55542178854801;0.116
15.558421620660658;0.11625
15.574721277224793;0.1165
15.5760207581429;0.11675
15.587320063317472;0.117
15.588619192651006;0.11725
15.583218146045999;0.1175
15.584516923404951;0.11775
15.59081552463037;0.118
15.587113949624756;0.11825
15.586712198290623;0.1185
15.58971027053048;0.11875
15.597708166246845;0.119
15.599005885342233;0.11925
15.610303427719169;0.1195
15.609900793280174;0.11975
15.617897981927776;0.12
15.619194993564502;0.12025
15.623791828092891;0.1205
15.625088485415471;0.12075
15.629684965434787;0.121
15.629381268053377;0.12125
15.627277393173786;0.1215
15.628573340698562;0.12175
15.633269110530255;0.122
15.63456470257142;0.12225
15.644160116724612;0.1225
15.64715535289239;0.12275
15.653450410977321;0.123
15.656345290881962;0.12325
15.667639992508885;0.1235
15.668934515760666;0.12375
15.683628860539875;0.124
15.68492302674909;0.12425
15.691217014290892;0.1245
15.692510823067865;0.12475
15.680404452982595;0.125
15.681697903937671;0.12525
15.65299117583569;0.1255
15.652684268579241;0.12575
15.623977182070929;0.126
15.625269916213352;0.12625
15.609862470909114;0.1265
15.609454846060828;0.12675
15.615747041571103;0.127
15.618739057342554;0.12725
15.633330893277797;0.1275
15.63462254927945;0.12775
15.642614025250143;0.128
15.643905321092502;0.12825
15.64689643670915;0.1285
15.646487372002728;0.12875
15.642778126875866;0.129
15.645768701231209;0.12925
15.643659094971396;0.1295
15.644949307999074;0.12975
15.64963934021689;0.13
15.652529191527497;0.13025
15.658818861833554;0.1305
15.660108351037714;0.13075
15.66809765904264;0.131
15.669386785751;0.13125
15.67397573106546;0.1315
15.675264494888687;0.13175
15.68325307712336;0.132
15.684541477672159;0.13225
15.690829696437758;0.1325
15.690417733322848;0.13275
15.696705588230113;0.133
15.697993261062242;0.13325
15.694280751721932;0.1335
15.69556806011188;0.13375
15.695255186134785;0.134
15.698142129693352;0.13425
15.689428890690284;0.1345
15.690715469028298;0.13475
15.6854018646101;0.135
15.686688077338415;0.13525
15.681274107115957;0.1355
15.68255995384545;0.13575
15.678845617429625;0.136
15.681831097771207;0.13625
15.679716394772932;0.1365
15.681001508337538;0.13675
15.67898643836776;0.137
15.680271184766347;0.13725
15.684855747436044;0.1375
15.686140126279602;0.13775
15.69582432119977;0.138
15.69710833209931;0.13825
15.708392158880981;0.1385
15.709675801447544;0.13875
15.71595925970177;0.139
15.717242533546427;0.13925
15.71512562288429;0.1395
15.719808527618133;0.13975
15.722691247650744;0.14
15.7223737828849;0.14025
15.72695613322339;0.1405
15.726538298569006;0.14075
15.73122027882454;0.141
15.732502073892796;0.14125
15.735383683676568;0.1415
15.735065108078665;0.14175
15.732946347001896;0.142
15.734227400349068;0.14225
15.728908268023;0.1425
15.733488949926507;0.14275
15.744769445962415;0.143
15.747749756033548;0.14325
15.755629880042735;0.1435
15.758609817892808;0.14375
15.764889569486604;0.144
15.766169134726963;0.14425
15.774148513516726;0.1445
15.775427705758743;0.14475
15.78830671135586;0.145
15.787985530210932;0.14525
15.804264162226819;0.1455
15.80714260730638;0.14575
15.826820865352477;0.146
15.829698936267983;0.14625
15.859376819955765;0.1465
15.8622545163187;0.14675
15.908532025259667;0.147
15.91320934668155;0.14725
15.95778648048723;0.1475
15.979063426579597;0.14775
15.84864018486155;0.148
15.83661675523598;0.14825
15.74789313760579;0.1485
15.825869331873879;0.14875
15.873745337943161;0.149
15.871721155716546;0.14925
15.916296785096947;0.1495
15.919272225987282;0.14975
15.937247478290475;0.15
15.931822541909451;0.15025
15.881397416747138;0.1505
15.879372102706471;0.15075
15.80564659969039;0.151
15.805220907601827;0.15125
15.751495026343733;0.1515
15.752768955819052;0.15175
15.725742695930741;0.152
15.72701624658175;0.15225
15.70828960767504;0.1525
15.709562779113574;0.15275
15.704135760800316;0.153
15.70540855263824;0.15325
15.70338115453032;0.1535
15.706353566379528;0.15375
15.714225788088852;0.154
15.715497819561273;0.15425
15.723469660699783;0.1545
15.72474131140737;0.15475
15.73771277158704;0.155
15.738984041141782;0.15525
15.750255119974605;0.1555
15.75152600798852;0.15575
15.767796705086536;0.156
15.770667211171666;0.15625
15.795337526146932;0.1565
15.798207649915355;0.15675
15.814477582379967;0.157
15.815747323443794;0.15725
15.808716873009871;0.1575
15.80998623098124;0.15775
15.802955397260938;0.158
15.804224371752015;0.15825
15.800493154357522;0.1585
15.80176174498051;0.15875
15.798030143524034;0.159
15.799298349891163;0.15925
15.80556636398496;0.1595
15.80683418570849;0.15975
15.808101814964832;0.16
15.81266925165706;0.16025
15.812236495688257;0.1605
15.820203546961505;0.16075
15.821470405379898;0.161
15.829437070846522;0.16125
15.82900354326448;0.1615
15.835269822536873;0.16175
15.836535908566802;0.162
15.842801801257373;0.16225
15.844067500511706;0.1625
15.852033006232915;0.16275
15.85159831832412;0.163
15.857863436688444;0.16325
15.857428361229015;0.1635
15.862093091848973;0.16375
15.861657628451443;0.164
15.864621970939577;0.16425
15.864186119216509;0.1645
15.8604500731854;0.16475
15.865013832749389;0.165
15.86297739781164;0.16525
15.867540768275314;0.1655
15.873803944043573;0.16575
15.873466925019585;0.166
15.879729711106524;0.16625
15.88099230220757;0.1665
15.880554698225902;0.16675
15.883516899064702;0.167
15.891378904627162;0.16725
15.892640714816476;0.1675
15.900602329535836;0.16775
15.901863748688449;0.168
15.908124972177516;0.16825
15.909385999906249;0.1685
15.920646831777862;0.16875
15.921907467695572;0.169
15.9314679075626;0.16925
15.932728151282173;0.1695
15.943988198757522;0.16975
15.946948049891876;0.17
15.96320770458848;0.17025
15.966167162750576;0.1705
16.022426424281406;0.17075
16.05028548908422;0.171
15.86824435706228;0.17125
15.847803028118843;0.1715
15.865761502157167;0.17175
15.868719779080523;0.172
15.899977858792186;0.17225
15.90283574119543;0.1725
15.91749342619353;0.17275
15.91875091368978;0.173
15.925008203587458;0.17325
15.924565295789865;0.1735
15.927522190200294;0.17375
15.92877888672205;0.174
15.925035385258433;0.17425
15.926291685712759;0.1745
15.930847787988334;0.17475
15.932103691988482;0.175
15.940059397616528;0.17525
15.942914904775792;0.1755
15.94757021336961;0.17575
15.948825323301318;0.176
15.94668023447425;0.17625
15.952934946791757;0.1765
15.957589460157182;0.17675
15.95714377447388;0.177
15.961697889645208;0.17725
15.961351805574527;0.1775
15.965905522165198;0.17775
15.9671590393206;0.178
15.976712356944098;0.17825
15.97796547493908;0.1785
15.990918393208922;0.17875
15.992171111657013;0.179
16.001723630186746;0.17925
16.00467594870151;0.1795
16.00922806710472;0.17975
16.008879985299767;0.18
16.005131703190067;0.18025
16.00798322067903;0.1805
16.00423453767008;0.18075
16.00718565406663;0.181
16.000136569772113;0.18125
16.00138728468996;0.1815
15.999237798723609;0.18175
16.002188111776494;0.182
15.995138223752063;0.18225
15.996388134553763;0.1825
15.992637844085053;0.18275
15.992187352249381;0.183
15.985136658950216;0.18325
15.986385764091024;0.1835
15.99423466757528;0.18375
15.995483369306449;0.184
16.00013186918802;0.18425
15.99968016712348;0.1845
16.00422826301631;0.18475
16.002176156770005;0.185
16.006723848288072;0.18525
16.007971337474;0.1855
16.014218624231304;0.18575
16.0154657084635;0.186
16.025112590074098;0.18625
16.026359268966623;0.1865
16.03420574504459;0.18675
16.037152018211543;0.187
16.046698088371013;0.18725
16.049643955426532;0.1875
16.06418961928165;0.18775
16.067135079839908;0.188
16.063380337004865;0.18825
16.06632539068008;0.1885
16.075870240769113;0.18875
16.07711488717553;0.189
16.0683593298029;0.18925
16.0679035685548;0.1895
16.050847603334812;0.18975
16.05209143404652;0.19
16.030035060593516;0.19025
16.02957848287939;0.1905
16.01752170080774;0.19075
16.017064714282178;0.191
15.940007523206305;0.19125
15.926250127483733;0.1915
15.949092527018086;0.19175
15.95203472171298;0.192
15.978276711472045;0.19225
15.979518496198914;0.1925
16.024060075797216;0.19275
16.0270014501706;0.193
16.09324261922271;0.19325
16.094483582857194;0.1935
16.112424340977707;0.19375
16.11526489348791;0.194
16.09820524029147;0.19425
16.097745381292054;0.1945
16.065685316393335;0.19475
16.06522504549899;0.195
16.048164568512707;0.19525
16.047703885338173;0.1955
16.04234299587908;0.19575
16.043581900039122;0.196
16.04142059772201;0.19625
16.044359088831445;0.1965
16.030597373271142;0.19675
16.03013545094482;0.197
16.01477332175619;0.19725
16.011010985608994;0.1975
16.033848442406956;0.19775
16.038485692053808;0.198
16.134722734453295;0.19825
16.13925956950916;0.1985
16.19049619712516;0.19875
16.193432617205044;0.199
16.211268829652578;0.19925
16.210904834371522;0.1995
16.142140631265647;0.19975
16.398376220238728;0.2
16.11961160119455;0.20025
16.115846774036893;0.2005
16.38538173866954;0.20075
16.188316494996297;0.201
15.904551042920959;0.20125
15.84908538234733;0.2015
15.907019513179215;0.20175
15.911553435320435;0.202
15.987787148674805;0.20225
15.992320653146152;0.2025
16.0302539486383;0.20275
16.033187035055086;0.203
16.049419912300344;0.20325
16.050652580277927;0.2035
16.063485038891674;0.20375
16.064717288045443;0.204
16.07434932764309;0.20425
16.075581157588484;0.2045
16.07341277778549;0.20475
16.07634418813798;0.205
16.06757538854983;0.20525
16.067106378924933;0.2055
16.06003715916717;0.20575
16.061267729180432;0.206
16.069198088868625;0.20625
16.068728238135648;0.2065
16.07495817688541;0.20675
16.076187905021825;0.207
16.079117422448814;0.20725
16.080346729070293;0.2075
16.0781758247902;0.20775
16.07940470951246;0.208
16.06903338314102;0.20825
16.06856184557982;0.2085
16.044790096732804;0.20875
16.046018136503935;0.209
16.030545964797167;0.20925
16.031773581516465;0.2095
16.026400986565797;0.20975
16.02762817984914;0.21
16.025455161270475;0.21025
16.02838193073378;0.2105
16.026308488143048;0.21075
16.027534833402278;0.211
16.01536096641546;0.21125
16.01658688708661;0.2115
16.009512595319734;0.21175
16.010738091018847;0.212
16.00526337408797;0.21225
16.006488444431128;0.2125
16.00271330195235;0.21275
16.003937946555677;0.213
16.001862378145148;0.21325
16.00478659662481;0.2135
16.00261060189871;0.21375
16.00223439387091;0.214
16.006757972445477;0.21425
16.009681337526466;0.2145
16.020904489017955;0.21475
16.023727426824024;0.215
16.036650150848754;0.21525
16.037872660996236;0.2155
16.03239495717056;0.21575
16.033617039275825;0.216
16.023238907216133;0.21625
16.024460560895594;0.2165
16.00568200021833;0.21675
16.005203225088454;0.217
15.99312423541009;0.21725
15.99434503108737;0.2175
15.98886561202443;0.21775
15.99178597812541;0.218
15.986306129294459;0.21825
15.987526065435723;0.2185
15.972045786453364;0.21875
15.971665292251542;0.219
15.942884582734425;0.21925
15.942403657806189;0.2195
15.910322517371002;0.21975
15.911541161333057;0.22
15.88775958959654;0.22025
15.887277802065645;0.2205
15.876795798644572;0.22075
15.876413579237523;0.221
15.880931143748716;0.22125
15.880448492082357;0.2215
15.88666562414267;0.22175
15.884582539833886;0.222
15.889099239060233;0.22225
15.89031572172595;0.2225
15.894931987735278;0.22275
15.894448036992465;0.223
15.892363869401766;0.22325
15.893579484867438;0.2235
15.901394883293747;0.22375
15.902610064584964;0.224
15.910525028645358;0.22425
15.910039775379218;0.2245
15.921254304690825;0.22475
15.920868616484471;0.225
15.927082710664454;0.22525
15.928296587135078;0.2255
15.93781024580065;0.22575
15.93902368656548;0.226
15.950236909333892;0.22625
15.951449914010208;0.2265
15.96936270049876;0.22675
15.97057526870388;0.227
15.985087618529912;0.22725
15.987999749881201;0.2275
16.012511662662103;0.22775
16.015423356776967;0.228
16.048234832130166;0.22825
16.049446088626063;0.2285
16.089057126169035;0.22875
16.09026794466346;0.229
16.136478544013723;0.22925
16.139288924124216;0.2295
16.178899084899335;0.22975
16.180109026243485;0.23
16.20131874806107;0.23025
16.202528250256503;0.2305
16.210337532734204;0.23075
16.2115465953986;0.231
16.22115543815412;0.23125
16.2189640609052;0.2315
16.22517246355628;0.23175
16.226380646011805;0.232
16.23258860817623;0.23225
16.233796349954016;0.2325
16.241703871249623;0.23275
16.24121117196752;0.233
16.250818252012188;0.23325
16.252025111288102;0.2335
16.25983174969975;0.23375
16.261038167151625;0.234
16.26724436354823;0.23425
16.268450338794057;0.2345
16.274656092793624;0.23475
16.275861625451448;0.235
16.28706693667204;0.23525
16.288272026359937;0.2355
16.294476894419663;0.23575
16.295681540755762;0.236
16.301885965272774;0.23625
16.304790167875254;0.2365
16.31269414846775;0.23675
16.31389790695482;0.237
16.320101443241043;0.23725
16.32130475723098;0.2375
16.324107848829215;0.23775
16.323710717940337;0.238
16.326513364468923;0.23825
16.326115788319576;0.2385
16.3323179893969;0.23875
16.333519967605493;0.239
16.34302172284998;0.23925
16.34422325503497;0.2395
16.35542456406509;0.23975
16.354925649844972;0.24
16.37112651227925;0.24025
16.372327151272568;0.2405
16.386927566729575;0.24075
16.388127758554923;0.241
16.39932772665327;0.24125
16.40052747092928;0.2415
16.408326991287634;0.24175
16.409526287633;0.242
16.41572535987006;0.24225
16.41862420790351;0.2425
16.414822831638038;0.24275
16.414321230978352;0.243
16.422219405829154;0.24325
16.423417356095154;0.2435
16.429615081681078;0.24375
16.43081258249164;0.244
16.437009858431583;0.24425
16.43990690940563;0.2445
16.449403735318533;0.24475
16.450600336075038;0.245
16.45679671157989;0.24525
16.456292861737865;0.2455
16.465888786453718;0.24575
16.46708448563222;0.246
16.486579959178155;0.24625
16.489475206996303;0.2465
16.510670228991454;0.24675
16.51346502506841;0.247
16.54805959513196;0.24725
16.550853939086924;0.2475
16.618748056838108;0.24775
16.619941948290336;0.248
16.666135613348434;0.24825
16.64902905191723;0.2485
16.370222263901567;0.24875
16.36141524920629;0.249
16.402608007736237;0.24925
16.377100539396274;0.2495
16.458292844091268;0.24975
16.389484921726076;0.25
16.465676772205576;0.25025
16.546868395434654;0.2505
16.549759791318188;0.25075
16.560950959761072;0.251
16.55874190066821;0.25125
16.5216326139445;0.2515
16.519523099494858;0.25175
16.4773133572242;0.252
16.478503387037446;0.25225
16.453093188839528;0.2525
16.454282762535378;0.25275
16.445472108029943;0.253
16.444961225228163;0.25325
16.439450114034997;0.2535
16.442338774355402;0.25375
16.438527206094346;0.254
16.439715409156797;0.25425
16.43760338344774;0.2545
16.438791128872158;0.25475
16.434978645335033;0.255
16.437765932741375;0.25525
16.435652990996175;0.2555
16.436839820004447;0.25575
16.439726419671214;0.256
16.442512789901482;0.25625
16.44039893060029;0.2565
16.44328484167267;0.25675
16.43947052302366;0.257
16.442255974558307;0.25725
16.445141196181666;0.2575
16.444626187798796;0.25775
16.447510949314758;0.258
16.448695480634626;0.25825
16.44657978166348;0.2585
16.4477638523064;0.25875
16.443947692468484;0.259
16.44513130205482;0.25925
16.44291468097051;0.2595
16.44409782912067;0.25975
16.44028074641041;0.26
16.443163432744853;0.26025
16.441045888029127;0.2605
16.445528112168372;0.26075
16.45501010506772;0.261
16.456191866632327;0.26125
16.467373396767336;0.2615
16.468554695377914;0.26175
16.478135762369227;0.262
16.47931659764644;0.26225
16.48209720111474;0.2625
16.483277572679313;0.26275
16.48785771224534;0.263
16.48733761971803;0.26325
16.48681729500258;0.2635
16.489696738004206;0.26375
16.487575948628123;0.264
16.49035492677955;0.26425
16.481533672363724;0.2645
16.482712185285877;0.26475
16.475590465451248;0.265
16.476768512765098;0.26525
16.45964632713267;0.2655
16.460823908459233;0.26575
16.452001256650053;0.266
16.451478371610403;0.26625
16.44435525324557;0.2665
16.445531901460832;0.26675
16.441708316161492;0.267
16.444484497252848;0.26725
16.447360444640207;0.2675
16.448536158228883;0.26775
16.454711637924195;0.268
16.45588688363147;0.26825
16.460361895256042;0.2685
16.461536672703247;0.26875
16.46111121587844;0.269
16.462285524686962;0.26925
16.460059599034178;0.2695
16.462933438825456;0.26975
16.459107043966164;0.27
16.460280414361684;0.27025
16.4581535499174;0.2705
16.4593264505387;0.27075
16.455499116130987;0.271
16.45667154659967;0.27125
16.461143741850147;0.2715
16.45731570178785;0.27175
16.456787426318193;0.272
16.45795891534662;0.27225
16.457530168778554;0.2725
16.458701186519452;0.27275
16.463171968474757;0.273
16.46434251454993;0.27325
16.460512824650436;0.2735
16.461682898681744;0.27375
16.45455273654933;0.274
16.457322338158683;0.27425
16.453491703415292;0.2745
16.45466083222465;0.27475
16.45422972449227;0.275
16.458698380123653;0.27525
16.456566799024326;0.2755
16.459334981099804;0.27575
16.457202926255626;0.276
16.461670634397322;0.27625
16.457838105430444;0.2765
16.460705339260535;0.27675
16.456872335793157;0.277
16.459739094933877;0.27725
16.45750561658826;0.2775
16.458671900661887;0.27775
16.463237947060342;0.278
16.462703755689212;0.27825
16.4688693264541;0.2785
16.471734659260612;0.27875
16.47949975401436;0.279
16.480664610620952;0.27925
16.505229228986025;0.2795
16.5079936090152;0.27975
16.574157750614123;0.28
16.577021653688437;0.28025
16.404885318143798;0.2805
16.409348743885857;0.28075
16.447211930820288;0.281
16.449974878852753;0.28125
16.47113758788894;0.2815
16.474000057834534;0.28175
16.47846228859522;0.282
16.47962428007671;0.28225
16.4707860321847;0.2825
16.47034754482491;0.28275
16.468108817903055;0.283
16.467669851324864;0.28325
16.473830644996074;0.2835
16.474991198822423;0.28375
16.481151512709655;0.284
16.482311586563533;0.28425
16.48507142028981;0.2845
16.486231013794256;0.28475
16.482390366982653;0.285
16.485249479760775;0.28525
16.483108352034414;0.2855
16.484266983709364;0.28575
16.477025374691426;0.286
16.47818352488642;0.28625
16.46934143420015;0.2865
16.470499102538444;0.28675
16.461656529807136;0.287
16.46281371591206;0.28725
16.42397066075906;0.2875
16.42182736425399;0.28775
16.344683826302703;0.288
16.34244004681107;0.28825
16.32859602568496;0.2885
16.33645176283025;0.28875
16.444307258152833;0.289
16.448762511558595;0.28925
16.53161752295344;0.2895
16.534372292243273;0.28975
16.555526819334013;0.29
16.553381104131574;0.29025
16.524535146541886;0.2905
16.52568894647089;0.29075
16.503542503824523;0.291
16.502995818508733;0.29125
16.494148890429482;0.2915
16.495301719492726;0.29175
16.491454305604442;0.292
16.492606648670602;0.29225
16.495458748597194;0.2925
16.498210605290208;0.29275
16.50436221865564;0.293
16.507213588599505;0.29325
16.511664715027806;0.2935
16.51121559784657;0.29375
16.515666236961817;0.294
16.516816632279586;0.29425
16.522966783705918;0.2945
16.524116691146858;0.29475
16.518566354508465;0.295
16.518115773696803;0.29525
16.509264948617936;0.2955
16.508713879177947;0.29575
16.501562565282914;0.296
16.502711006838936;0.29625
16.5088592037521;0.2965
16.51000715592852;0.29675
16.522754863274308;0.297
16.523902325695584;0.29725
16.53174954309847;0.2975
16.53289651538911;0.29775
16.550743242473633;0.298
16.551889724258196;0.29825
16.581335960648953;0.2985
16.58418195155207;0.29875
16.608627696873707;0.299
16.599773196520054;0.29925
16.53761845039729;0.2995
16.552063458411606;0.29975
16.741508220469203;0.3
16.537652736476286;0.30025
16.75219700633907;0.3005
16.728341029963776;0.30075
16.35278480725663;0.301
16.347228338123873;0.30125
16.27177162247174;0.3015
16.307914660206485;0.30175
16.432357451234367;0.302
16.438499995461648;0.30225
16.4913422927946;0.3025
16.494084343139505;0.30275
16.486926146402645;0.303
16.48476770249032;0.30325
16.497509011308825;0.3035
16.498650072764473;0.30375
16.513190886763578;0.304
16.51433145321246;0.30425
16.508771772017457;0.3045
16.5132118430849;0.30475
16.507751666321138;0.305
16.508891241632522;0.30525
16.51503056892541;0.3055
16.516169648106175;0.30575
16.52560847908119;0.306
16.528447061756832;0.30625
16.531185396039497;0.3065
16.532323481835576;0.30675
16.521861319051474;0.307
16.522998907593614;0.30725
16.5291362473684;0.3075
16.531873338282267;0.30775
16.53801018024165;0.308
16.53584677315298;0.30825
16.543683116922715;0.3085
16.541419211457317;0.30875
16.537555056663233;0.309
16.543690652446948;0.30925
16.534825998714933;0.3095
16.534361095373683;0.30975
16.467095942329685;0.31
16.44993053948944;0.31025
16.491064886759453;0.3105
16.49549898404625;0.31075
16.593332831256348;0.311
16.596166428296282;0.31125
16.623899775072587;0.3115
16.62343287149181;0.31175
16.591165717460505;0.312
16.590698312885234;0.31225
16.565130657672565;0.3125
16.566262751729074;0.31275
16.550694594961346;0.313
16.55182618727597;0.31325
16.54465752857955;0.3135
16.545788618778683;0.31375
16.54021945777999;0.314
16.543050045490094;0.31425
16.542480381815622;0.3145
16.54531046666321;0.31475
16.5547402999395;0.315
16.55586988155115;0.31525
16.566999211404816;0.3155
16.568128289407166;0.31575
16.580957115464873;0.316
16.58208568948462;0.31625
16.5915140113731;0.3165
16.59264208103701;0.31675
16.598769898383054;0.317
16.59829746331794;0.31725
16.6044247757484;0.3175
16.600551835581154;0.31775
16.59497864272294;0.318
16.594405197080498;0.31825
16.588931498560584;0.3185
16.590057547069957;0.31875
16.58618334251538;0.319
16.587308884803633;0.31925
16.586734173841492;0.3195
16.587859209535754;0.31975
16.582283991793208;0.32
16.583408520520663;0.32025
16.576232795624936;0.3205
16.577356817012838;0.32075
16.575180584591205;0.321
16.577904098266874;0.32125
16.584027357946685;0.3215
16.58355036353749;0.32175
16.594673114946147;0.322
16.597395612079527;0.32225
16.6069178548445;0.3225
16.608039843147957;0.32275
16.61576157689678;0.323
16.618583055997867;0.32325
16.614704280358133;0.3235
16.61412524988448;0.32375
16.596945964483837;0.324
16.596366424063135;0.32425
16.577486628529307;0.3245
16.578606577789298;0.32475
16.56972627175006;0.325
16.569245710318558;0.32525
16.578664893401758;0.3255
16.58148382090664;0.32575
16.59420249274018;0.326
16.593720908809374;0.32625
16.601439069021225;0.3265
16.60095697328274;0.32675
16.603674621500932;0.327
16.603192013582827;0.32725
16.614309149435453;0.3275
16.615426028965853;0.32775
16.628142652081074;0.328
16.629259018688167;0.32825
16.6420751286942;0.3285
16.64489098200624;0.32875
16.641006578531368;0.329
16.64212191817667;0.32925
16.63983700084924;0.3295
16.640951826456188;0.32975
16.628766394904613;0.33
16.62818070610164;0.33025
16.6259947599544;0.3305
16.62880855637001;0.33075
16.633222095255636;0.331
16.636035376518414;0.33125
16.6404484000655;0.3315
16.64156116580407;0.33175
16.637673673641295;0.332
16.642085923484352;0.33225
16.631597915240434;0.3325
16.634309648816746;0.33275
16.625421124120486;0.333
16.62653234105887;0.33325
16.622643299539124;0.3335
16.625453999468476;0.33375
16.623264440754166;0.334
16.62597462330344;0.33425
16.635484547023548;0.3345
16.63659421182176;0.33475
16.646003617605338;0.335
16.647112764281566;0.33525
16.654921651757736;0.3355
16.65603027994113;0.33575
16.660438648739063;0.336
16.65984675805884;0.33625
16.657654607807782;0.3365
16.658762197893214;0.33675
16.663169528222472;0.337
16.662676598702905;0.33725
16.66378340924185;0.3375
16.664889959746688;0.33775
16.660996250124768;0.338
16.665402280283473;0.33825
16.66320805013019;0.3385
16.664313559572307;0.33875
16.660418808517225;0.339
16.661523796872356;0.33925
16.65762852454511;0.3395
16.660332991442917;0.33975
16.65813719747321;0.34
16.66094114254343;0.34025
16.66534482656102;0.3405
16.666448249433447;0.34075
16.67085141106817;0.341
16.673654311372665;0.34125
16.67145695025442;0.3415
16.672559327620917;0.34175
16.668661443379655;0.342
16.669763297438145;0.34225
16.6641648897039;0.3425
16.666966220084447;0.34275
16.658067288487317;0.343
16.65916809482004;0.34325
16.653568638990173;0.3435
16.65466892090527;0.34375
16.652468940472897;0.344
16.653568697600626;0.34425
16.659668192196037;0.3445
16.660767424166725;0.34475
16.66846639342028;0.345
16.66956509986431;0.34525
16.672363543406433;0.3455
16.673461723954265;0.34575
16.672859641415446;0.346
16.673957295697605;0.34625
16.676754686708396;0.3465
16.677851814355478;0.34675
16.675648678546505;0.347
16.676745279189156;0.34725
16.677841616191113;0.3475
16.680537689460063;0.34775
16.678333498903704;0.348
16.681129044429742;0.34825
16.68052432594589;0.3485
16.683319343359877;0.34875
16.681014096579425;0.349
16.68550858551228;0.34925
16.684902810066184;0.3495
16.6876967701489;0.34975
16.690390465668187;0.35
16.689883896531825;0.35025
16.687577062647584;0.3505
16.690369963923267;0.35075
16.699762600266663;0.351
16.70255497158558;0.35125
16.715347077787843;0.3515
16.716438918781265;0.35175
16.72913049447368;0.352
16.73022180477293;0.35225
16.738012849586863;0.3525
16.74080362882334;0.35275
16.75189414239022;0.353
16.752984390195387;0.35325
16.765674372146716;0.3535
16.766764088152097;0.35375
16.779553538119444;0.354
16.780642721956646;0.35425
16.79843163957164;0.3545
16.80112029087233;0.35475
16.837208675766668;0.355
16.841696794162587;0.35525
16.89278464596804;0.3555
16.923872231090986;0.35575
16.814959549439397;0.356
16.801046600921246;0.35625
16.64713338544452;0.3565
16.706519902917208;0.35675
16.67090615324732;0.357
16.69369213634286;0.35725
16.781477852111855;0.3575
16.785863300462328;0.35775
16.838648481302315;0.358
16.83973339453986;0.35825
16.81411804008302;0.3585
16.81350241783986;0.35875
16.76628652771845;0.359
16.765670369626864;0.35925
16.698453943473194;0.3595
16.69453724916554;0.35975
16.593920286612;0.36
16.591703055720696;0.36025
16.556085556399744;0.3605
16.560567788557282;0.36075
16.661649752101447;0.361
16.66773144694039;0.36125
16.757112872982265;0.3615
16.76149403013524;0.36175
16.819274918307492;0.362
16.8220555374072;0.36225
16.848135887342558;0.3625
16.85251596802177;0.36275
16.65189577935304;0.363
16.64967532124459;0.36325
16.675754593604648;0.3635
16.67853359634145;0.36375
16.714612329363238;0.364
16.717290792578265;0.36425
16.740068985894794;0.3645
16.742846909221093;0.36475
16.75392456246545;0.365
16.756601945536147;0.36525
16.766079058341475;0.3655
16.767155900789753;0.36575
16.781532472789287;0.366
16.7843087742484;0.36625
16.80038480507543;0.3665
16.801460565178715;0.36675
16.814136054466598;0.367
16.815211272847446;0.36725
16.821286220229627;0.3675
16.81736089652151;0.36775
16.811835301631486;0.368
16.812909435467944;0.36825
16.80728329793929;0.3685
16.808356888953934;0.36875
16.799430208420297;0.369
16.800503256246806;0.36925
16.794876032341904;0.3695
16.79594853661403;0.36975
16.79372076897165;0.37
16.791492729323217;0.37025
16.799164417577213;0.3705
16.800235833642116;0.37075
16.808006977426423;0.371
16.807377848838623;0.37125
16.813448447787238;0.3715
16.812918774180773;0.37175
16.81728882792777;0.372
16.81665860893675;0.37225
16.821128117116263;0.3725
16.82049735237486;0.37275
16.823266314621115;0.373
16.824335003763586;0.37325
16.828703419710862;0.3735
16.831471562371526;0.37375
16.83913943165418;0.374
16.84190702746743;0.37425
16.83627434971989;0.3745
16.83574139832019;0.37475
16.79510817317696;0.375
16.79447467419885;0.37525
16.755540901294502;0.3755
16.75500685437258;0.37575
16.80937253334176;0.376
16.81373793811072;0.37625
16.874803068588143;0.3765
16.88256792468273;0.37675
16.876932506303184;0.377
16.872996813358224;0.37725
16.880760845756573;0.3775
16.883524603406958;0.37775
16.89618808621813;0.378
16.89895129409884;0.37825
16.920014226957846;0.3785
16.921076884703915;0.37875
16.942139267245828;0.379
16.903201374492372;0.37925
17.004263206352345;0.3795
17.062024762734552;0.37975
16.836386043547808;0.38
17.084147048700938;0.38025
16.803507778102773;0.3805
16.779568231662157;0.38075
16.713928409287938;0.381
16.699988310888983;0.38125
16.782747936374157;0.3815
16.78710728565234;0.38175
16.843166358632416;0.382
16.845925155223288;0.38225
16.855283675333858;0.3825
16.858041918873045;0.38275
16.86579988574977;0.383
16.866857575872967;0.38325
16.88291498915158;0.3835
16.885572125494562;0.38375
16.900028984810874;0.384
16.902685567009485;0.38425
16.90714187199937;0.3845
16.908197899689526;0.38475
16.91585364998895;0.385
16.918609122806643;0.38525
16.914664318051624;0.3855
16.915719235632924;0.38575
16.91007387545957;0.386
16.91282823744061;0.38625
16.9088823214851;0.3865
16.911636127502096;0.38675
16.907689655400674;0.387
16.908742905089916;0.38725
16.891395876478907;0.3875
16.892448569476752;0.38775
16.876900983992556;0.388
16.877953119935444;0.38825
16.87400497721454;0.3885
16.87835655573897;0.38875
16.8761078554179;0.389
16.878758876160468;0.38925
16.88320961787585;0.3895
16.882560080473212;0.38975
16.890310263861743;0.39
16.89136016795063;0.39025
16.899009792649082;0.3905
16.898459137866304;0.39075
16.90450820351152;0.391
16.90555698949396;0.39125
16.91160549572286;0.3915
16.91095372210747;0.39175
16.917001668557052;0.392
16.91974933498087;0.39225
16.917396721288203;0.3925
16.920143827388333;0.39275
16.92449065319056;0.393
16.925537198604182;0.39325
16.923283463538525;0.3935
16.927629447902902;0.39375
16.92707515160665;0.394
16.929720574559113;0.39425
16.929165716669644;0.3945
16.9302105778476;0.39475
16.922855158002353;0.395
16.923899457043287;0.39525
16.918343474879787;0.3955
16.917687211421253;0.39575
16.9120306665771;0.396
16.914773840256736;0.39625
16.9175167323696;0.3965
16.916859342825116;0.39675
16.91460167153274;0.397
16.915643718401924;0.39725
16.921685483342138;0.3975
16.92102696626285;0.39775
16.927068167073553;0.398
16.92810908568373;0.39825
16.927449722002898;0.3985
16.93019007594056;0.39875
16.92793014740624;0.399
16.93226993630947;0.39925
16.930009442559797;0.3995
16.93104866606677;0.39975
16.928687606739942;0.4
16.92972626448889;0.40025
16.9357646392232;0.4005
16.93680273085245;0.40075
16.947840539286243;0.401
16.94887806443419;0.40125
16.961615306205907;0.4015
16.96265226451102;0.40175
16.975388939259172;0.402
16.97642533036;0.40225
16.992461437723172;0.4025
16.995097261258348;0.40275
17.007832800875203;0.403
17.008868056483422;0.40325
17.003203027992704;0.4035
17.00263771531275;0.40375
16.996972118353277;0.404
16.999706237024007;0.40425
16.995740071234675;0.4045
16.996773620895024;0.40475
16.992806885914803;0.405
16.992139866203775;0.40525
16.98987256167172;0.4055
16.992504972228414;0.40575
16.996937097783643;0.406
16.996268938247223;0.40625
16.99560049352895;0.4065
16.99663176353865;0.40675
16.99436274818616;0.407
16.99539344738131;0.40725
16.999723861033953;0.4075
17.00075398905395;0.40775
17.00018383135117;0.408
17.001213387835495;0.40825
16.998842658416805;0.4085
17.001571643005004;0.40875
17.00090034151;0.409
17.00192875384171;0.40925
16.997956879910063;0.4095
16.998984719624996;0.40975
17.003412272896455;0.41
17.002739539634398;0.41025
17.00206651974879;0.4105
17.00649321314961;0.41075
17.004119619746845;0.411
17.00684573945049;0.41125
17.004571572170548;0.4115
17.00719711781704;0.41175
17.004922376299987;0.412
17.005947347529425;0.41225
17.0036720314154;0.4125
17.004696427867973;0.41275
17.0040205367972;0.413
17.00504435811316;0.41325
17.004367891725938;0.4135
17.005391137545622;0.41375
17.00481409548233;0.414
17.005836765446162;0.41425
17.01185914734725;0.4145
17.012881241095723;0.41475
17.01720304660173;0.415
17.01822456377542;0.41525
17.015945792526963;0.4155
17.016966732766527;0.41575
17.021287384404296;0.416
17.022307747350467;0.41625
17.025027821515238;0.4165
17.026047606808824;0.41675
17.03036710314145;0.417
17.03138631042335;0.41725
17.03410522856476;0.4175
17.03512385747594;0.41775
17.039442197067153;0.418
17.040460247248667;0.41825
17.04317800793077;0.4185
17.04419547902375;0.41875
17.043512660437912;0.419
17.04452955208357;0.41925
17.04054615387104;0.4195
17.03986246571067;0.41975
17.044278487512784;0.42
17.043594219187742;0.42025
17.041309660645915;0.4205
17.042324811797666;0.42075
17.041639672553377;0.421
17.04095424282345;0.42125
17.04536852251828;0.4215
17.04638251154828;0.42175
17.05399620982388;0.422
17.053409617255504;0.42225
17.057722733753597;0.4225
17.057035559228616;0.42275
17.05304809359102;0.423
17.054060336751288;0.42325
17.046772288619895;0.4235
17.04778394910734;0.42375
17.04549531812413;0.424
17.046506395580764;0.42425
17.04251718138778;0.4245
17.041827675455707;0.42475
17.046137877695088;0.425
17.047147788016478;0.42525
17.056557406330437;0.4255
17.05586673254755;0.42575
17.061875766578385;0.426
17.061184508333554;0.42625
17.06719295772365;0.4265
17.064901114659285;0.42675
17.057608979051096;0.427
17.058616550809713;0.42725
17.042923829845776;0.4275
17.043930816069945;0.42775
17.041637509392885;0.428
17.04424390972527;0.42825
17.04195001697779;0.4285
17.04625583106114;0.42875
17.05396135188602;0.429
17.054966579363153;0.42925
17.059271513403264;0.4295
17.05867615391709;0.42975
17.06968050081538;0.43
17.072284554008892;0.43025
17.049988313408384;0.4305
17.049291778924648;0.43075
16.960294950468462;0.431
16.961297827950627;0.43125
17.02900041128195;0.4315
17.033302700373255;0.43175
17.12270469513537;0.432
17.12700639547913;0.43225
17.171307801315383;0.4325
17.175708912555;0.43275
17.16500972910884;0.433
17.164310250887787;0.43325
17.140310477802732;0.4335
17.139710409764582;0.43375
17.12231004668424;0.434
17.12170938847263;0.43425
17.112708435040688;0.4345
17.11370718629935;0.43475
17.118005642159577;0.435
17.117303802532323;0.43525
17.121701667328566;0.4355
17.12269923645929;0.43575
17.12369650983549;0.436
17.124693487368166;0.43625
17.122290168968338;0.4365
17.12168655454703;0.43675
17.110982644015273;0.437
17.111978437284122;0.43725
17.104673934264625;0.4375
17.10566913486785;0.43775
17.104964039004876;0.438
17.107658646586792;0.43825
17.113652957524696;0.4385
17.11464697172969;0.43875
17.1206406891129;0.439
17.121634109585454;0.43925
17.12422723305849;0.4395
17.12362005944316;0.43975
17.11291258865062;0.44
17.113904820592047;0.44025
17.10319675517862;0.4405
17.10418839232153;0.44075
17.100179731931973;0.441
17.101170773921176;0.44125
17.097161518200352;0.4415
17.09815196468074;0.44175
17.10254211327358;0.442
17.100131963890128;0.44225
17.10282151644165;0.4425
17.102110770839424;0.44275
17.106499726994738;0.443
17.10578838481888;0.44325
17.11007674422316;0.4435
17.1094648051189;0.44375
17.10375256741743;0.444
17.10804003103008;0.44425
17.10572719586821;0.4445
17.10841406184317;0.44475
17.116000628866338;0.445
17.116986896849095;0.44525
17.119672865702825;0.4455
17.12065853533894;0.44575
17.118343905668848;0.446
17.11762897660397;0.44625
17.121913748055746;0.4465
17.119598219935614;0.44675
17.123882392155032;0.447
17.12326626462547;0.44725
17.1325498372584;0.4475
17.13183310996531;0.44775
17.136216082657697;0.448
17.13549875524707;0.44825
17.129781127644943;0.4485
17.130763199762857;0.44875
17.085144971512342;0.449
17.08272644280495;0.44925
17.00710761355225;0.4495
17.004688483665802;0.44975
17.029069053057203;0.45
17.035049321638038;0.45025
17.132629289319908;0.4505
17.137008956014434;0.45075
17.21128832163324;0.451
17.21396738608796;0.45125
17.224946149290243;0.4515
17.21592461115175;0.45175
17.18350277158414;0.452
17.182880630499103;0.45225
17.16045818780832;0.4525
17.159835443423496;0.45275
17.15241239725634;0.453
17.15338904921858;0.45325
17.151065399221938;0.4535
17.153741447178163;0.45375
17.151317192999013;0.454
17.152292636596247;0.45425
17.148267777881646;0.4545
17.14924261676699;0.45475
17.146917153164082;0.455
17.149591386984724;0.45525
17.153865318140745;0.4555
17.154838946543965;0.45575
17.160812272106227;0.456
17.161785294739385;0.45625
17.164458014355297;0.4565
17.16703043086584;0.45675
17.16470254418289;0.457
17.16737435421835;0.45725
17.166645860884124;0.4575
17.167617064092127;0.45775
17.170287963754284;0.458
17.17125855978253;0.45825
17.168828852088822;0.4585
17.171498840585116;0.45875
17.17746852518338;0.459
17.178437905795597;0.45925
17.182706982333762;0.4595
17.18367575470987;0.45975
17.203044222835945;0.46
17.205612386624004;0.46025
17.25498024598609;0.4605
17.26094780083424;0.46075
17.09021505108052;0.461
17.091181996636994;0.46125
17.132148637415746;0.4615
17.134814973328858;0.46175
17.172381004288436;0.462
17.175046730206596;0.46225
17.196012150995454;0.4625
17.195277266567146;0.46275
17.20124207683382;0.463
17.202206581707635;0.46325
17.223170781100748;0.4635
17.22583467492534;0.46375
17.246798263093606;0.464
17.247761545517736;0.46425
17.260424522109954;0.4645
17.262987192782468;0.46475
17.25734955744752;0.465
17.25491161601735;0.46525
17.28587336840421;0.4655
17.290234814520375;0.46575
17.38949595427811;0.466
17.390456787589713;0.46625
17.218117314367476;0.4665
17.214077534523714;0.46675
17.163337447970743;0.467
17.160997054620896;0.46725
17.23695635438652;0.4675
17.24621534717997;0.46775
17.363874032913603;0.468
17.3664324114998;0.46825
17.38409048285095;0.4685
17.37334824687945;0.46875
17.319305703497708;0.469
17.318662852618143;0.46925
17.25961969415319;0.4695
17.258876228015293;0.46975
17.236532454116904;0.47
17.237488372370485;0.47025
17.245043982688514;0.4705
17.24439928498348;0.47075
17.175354279167884;0.471
17.15130896515423;0.47125
17.347263342855033;0.4715
17.34981741218284;0.47175
17.16077117305018;0.472
17.383424625369614;0.47225
17.03767776905371;0.4725
17.053630604015037;0.47275
16.991283130166185;0.473
17.003935347419752;0.47325
17.11818725568835;0.4735
17.1241388548846;0.47375
17.181790144921134;0.474
17.182741125710596;0.47425
17.196991797165637;0.4745
17.197942159198927;0.47475
17.20719221172314;0.475
17.208141954650966;0.47525
17.219091387895105;0.4755
17.220040511368268;0.47575
17.227689324983174;0.476
17.22693782865256;0.47625
17.231286022289165;0.4765
17.23223390580575;0.47675
17.231481479115082;0.477
17.232428742129937;0.47725
17.238375694763103;0.4775
17.237622336927384;0.47775
17.24196866853559;0.478
17.242914689500548;0.47825
17.247160399735087;0.4785
17.248105799152057;0.47875
17.252350887664313;0.479
17.254995665184726;0.47925
17.25924013162617;0.4795
17.258584286901545;0.47975
17.25782813092375;0.48
17.258771663605692;0.48025
17.264714884860307;0.4805
17.265657794600525;0.48075
17.269900392739295;0.481
17.272542679189574;0.48125
17.28348465386434;0.4815
17.284426316676566;0.48175
17.29366766753925;0.482
17.2946087063654;0.48225
17.300549433068017;0.4825
17.30148984756015;0.48275
17.30742994975482;0.483
17.308369739565087;0.48325
17.31430921690401;0.4835
17.31524838168466;0.48375
17.322887233820126;0.484
17.3238257732235;0.48425
17.32806399980789;0.4845
17.327401913486412;0.48475
17.3316395141722;0.485
17.332576801778394;0.48525
17.33681377621815;0.4855
17.334450437404627;0.48575
17.323686785251002;0.486
17.32462281967047;0.48625
17.30225854057622;0.4865
17.303193947881464;0.48675
17.292429041499428;0.487
17.29336382134334;0.48725
17.289298287326453;0.4875
17.293632439362014;0.48775
17.299566277363294;0.488
17.300499801243575;0.48825
17.309733010916144;0.4885
17.310665906294304;0.48875
17.31829848729137;0.489
17.320830753820665;0.48925
17.32846270579553;0.4895
17.32939434312931;0.48975
17.33702566573536;0.49
17.336256673527064;0.49025
17.347187366417796;0.4905
17.346417744320952;0.49075
17.35404780714994;0.491
17.353277554818174;0.49125
17.357606987239084;0.4915
17.35853610432611;0.49175
17.362764905992712;0.492
17.363693392152346;0.49225
17.36132156271849;0.4925
17.36384941760463;0.49275
17.356476956724265;0.493
17.35740417999091;0.49325
17.355031087318082;0.4935
17.355957678619312;0.49375
17.363483953808153;0.494
17.36440991279816;0.49425
17.372035555502894;0.4945
17.37296088183594;0.49475
17.372185891710895;0.495
17.376510585041355;0.49525
17.382434961740937;0.4955
17.38335902172327;0.49575
17.380882764901994;0.496
17.383506191190754;0.49625
17.38112930050321;0.4965
17.382052092753046;0.49675
17.379574567853936;0.497
17.38049672571958;0.49725
17.386418566263693;0.4975
17.387340089399988;0.49775
17.3949612950422;0.498
17.39588218310407;0.49825
17.41180275349936;0.4985
17.414423006141828;0.49875
17.42864294094526;0.499
17.427862557823442;0.49925
17.42378185669018;0.4995
17.428100837459287;0.49975
17.420619500044587;0.5
17.45323784435992;0.50025
17.420855870319137;0.5005
17.413373577836094;0.50075
17.41269096682467;0.501
17.39690803719874;0.50125
17.399524788872213;0.5015
17.38874122175899;0.50175
17.38965733577299;0.502
17.39387313082815;0.50225
17.394788606838414;0.5025
17.39410376371773;0.50275
17.395018601380073;0.503
17.38923311973942;0.50325
17.390147318709758;0.5035
17.387761198205094;0.50375
17.390274758139448;0.504
17.38788799842683;0.50425
17.3921009189813;0.5045
17.39971351971689;0.50475
17.39892580054767;0.505
17.404837761387718;0.50525
17.405749402151113;0.5055
17.41006072275195;0.50575
17.41097172310435;0.506
17.413482403122426;0.50625
17.414392762720315;0.5065
17.41200280181216;0.50675
17.41461252031212;0.507
17.410521918134364;0.50725
17.413030995193072;0.5075
17.408939751402436;0.50775
17.408248186676666;0.508
17.41415630092997;0.50825
17.415064094076584;0.5085
17.42257156603075;0.50875
17.425178716706714;0.509
17.434385546018746;0.50925
17.43529205388112;0.5095
17.446198240208126;0.50975
17.448804104914068;0.51
17.44300964791325;0.51025
17.44391486912;0.5105
17.438219768448658;0.51075
17.439124345813568;0.511
17.436628601129094;0.51125
17.439232534309603;0.5115
17.43683614526949;0.51175
17.441039433923137;0.512
17.446942400184966;0.51225
17.446145043969388;0.5125
17.455447365190842;0.51275
17.45634936376377;0.513
17.45055103960263;0.51325
17.45145239262189;0.5135
17.444053422736026;0.51375
17.44495412985954;0.514
17.43745451390693;0.51425
17.43835457479271;0.5145
17.43095431243142;0.51475
17.433553726737593;0.515
17.447752817625783;0.51525
17.448651585010555;0.5155
17.462850028806493;0.51575
17.46374814892818;0.516
17.461345945290216;0.51625
17.46554341780722;0.5165
17.46144056639381;0.51675
17.464037390964634;0.517
17.461633891434335;0.51725
17.462530067717577;0.5175
17.466725919729036;0.51775
17.464321447383398;0.518
17.46351665059536;0.51825
17.46611152927963;0.5185
17.465306083350935;0.51875
17.466200312724013;0.519
17.470394217313604;0.51925
17.472987797034474;0.5195
17.478881051801388;0.51975
17.47977398152913;0.52
17.48566658613251;0.52025
17.486558865526316;0.5205
17.48915081962538;0.52075
17.486642448344533;0.521
17.479233751598624;0.52125
17.478424729302496;0.5215
17.467715381371033;0.52175
17.471905707719106;0.522
17.46779570826162;0.52225
17.468685382913467;0.5225
17.471274731589578;0.52275
17.470463754204875;0.523
17.473052450674302;0.52325
17.473940820912816;0.5235
17.478128864835384;0.52375
17.477316582356988;0.524
17.476603973392614;0.52425
17.477491037857266;0.5245
17.474977775665966;0.52475
17.47586418673374;0.525
17.47015027097563;0.52525
17.47103602830668;0.5255
17.47522145864197;0.52575
17.47440656189657;0.526
17.48199133798557;0.52625
17.48287578682407;0.5265
17.485459908327194;0.52675
17.48464370241006;0.527
17.470527168987807;0.52725
17.469710307975596;0.5275
17.450593119288584;0.52775
17.44987560284195;0.528
17.43735775855088;0.52825
17.43663958633058;0.5285
17.425821086096256;0.52875
17.42500225776314;0.529
17.429283101246472;0.52925
17.430163616461495;0.5295
17.44104380332348;0.52975
17.4419236617477;0.53
17.44940319164944;0.53025
17.450282392944004;0.5305
17.459561265546704;0.53075
17.46043980937286;0.531
17.46961802433782;0.53125
17.47219591035692;0.5315
17.458073467345535;0.53175
17.457250695219034;0.532
17.39982759389281;0.53225
17.397304163282254;0.5325
17.344880403302785;0.53275
17.350756313869823;0.533
17.409931894898808;0.53325
17.41580714630519;0.5335
17.49838206800443;0.53375
17.502556659912003;0.534
17.555130921943398;0.53425
17.55930485401411;0.5345
17.53857845603965;0.53475
17.53775172793555;0.535
17.50532466961734;0.53525
17.504497281000578;0.5355
17.488669562000815;0.53575
17.487941512533634;0.536
17.48041313251462;0.53625
17.48128442185937;0.5365
17.478855380483502;0.53675
17.479726008302634;0.537
17.478896305232407;0.53725
17.47816627118847;0.5375
17.48233590608649;0.53775
17.484905209842136;0.538
17.482374182371093;0.53825
17.48664282358907;0.5385
17.480811133411773;0.53875
17.481679111754932;0.539
17.479246758534284;0.53925
17.48341407366557;0.5395
17.48098105706457;0.53975
17.480147708647046;0.54
17.479314028328794;0.54025
17.48188001602561;0.5405
17.47274567165331;0.54075
17.470310995127722;0.541
17.479475986364683;0.54125
17.473640645280042;0.5415
17.411204971789665;0.54175
17.407068965809433;0.542
17.38123262725523;0.54225
17.403795956042956;0.5425
17.507958952088533;0.54275
17.512221615307887;0.543
17.559683945616953;0.54325
17.56224594293169;0.5435
17.556407607168055;0.54375
17.557268938242036;0.544
17.54482993606962;0.54425
17.543990600566808;0.5445
17.536550931649614;0.54475
17.535710929234078;0.545
17.538270593236234;0.54525
17.539129923572137;0.5455
17.538288920157854;0.54575
17.539147582909465;0.546
17.53500591174306;0.54625
17.53426390657475;0.5465
17.531721567320652;0.54675
17.535978893896896;0.547
17.531835886219625;0.54725
17.535992544204994;0.5475
17.535148867769173;0.54775
17.53770485682835;0.548
17.56356051129871;0.54825
17.567715831096464;0.5485
17.596970816137837;0.54875
17.597825466339057;0.549
17.39527978161637;0.54925
17.39283376188604;0.5495
17.40868740706433;0.54975
17.409540717067532;0.55
17.43369369181194;0.55025
17.436246331213862;0.5505
17.448798635189625;0.55075
17.451250603655563;0.551
17.46550223652802;0.55125
17.467953533723367;0.5515
17.478804495157974;0.55175
17.479655120748227;0.552
17.47550541041052;0.55225
17.474755364061277;0.5525
17.445604981616917;0.55275
17.446454262993882;0.553
17.437303208108617;0.55325
17.443151816877595;0.5535
17.54230008921729;0.55375
17.54814802504419;0.554
17.628995624274797;0.55425
17.63484288682563;0.5545
17.62238981261322;0.55475
17.621536401554103;0.555
17.614082653564843;0.55525
17.616528568561996;0.5555
17.61407414646215;0.55575
17.614919387181896;0.556
17.59906429063784;0.55625
17.604908856746608;0.5565
17.59415308542483;0.55675
17.59499697658914;0.557
17.590840530156207;0.55725
17.5932837460427;0.5575
17.589126624165306;0.55775
17.59166916444072;0.558
17.60581136678565;0.55825
17.606653231116823;0.5585
17.617494757350975;0.55875
17.611735945404856;0.559
17.532576795195226;0.55925
17.538417306638856;0.5595
17.73585747965254;0.55975
17.565097314153082;0.56
17.740936810057292;0.56025
17.656775967281998;0.5605
17.35591478574404;0.56075
17.391753265360272;0.561
17.329291406047563;0.56125
17.37012920772279;0.5615
17.439266670302846;0.56175
17.441803793704636;0.562
17.46764057784508;0.56225
17.46847702264111;0.5625
17.479313128009675;0.56275
17.481748893867728;0.563
17.494284320132238;0.56325
17.495119406720193;0.5635
17.50925415354859;0.56375
17.508488560534442;0.564
17.525922627594767;0.56425
17.528456354646607;0.5645
17.544289741607006;0.56475
17.545122788393037;0.565
17.560955494921767;0.56525
17.561787861110286;0.5655
17.5709198868757;0.56575
17.571751572135124;0.566
17.574282916805686;0.56625
17.573413920804523;0.5665
17.577644584048798;0.56675
17.575074906455676;0.567
17.58590488794234;0.56725
17.586734528425982;0.5675
17.60256382782381;0.56775
17.603392786053046;0.568
17.607621403030926;0.56825
17.603449678674693;0.5685
17.60927761290161;0.56875
17.60840520562895;0.569
17.614232456774005;0.56925
17.61175936625407;0.5695
17.617585933986454;0.56975
17.618412159888493;0.57
17.630838043877525;0.57025
17.6316635858709;0.5705
17.657488785785983;0.57075
17.660013643540157;0.571
17.69583815905082;0.57125
17.698362332235366;0.5715
17.759186163011222;0.57175
17.76330965129582;0.572
17.84243279700661;0.57225
17.851655600061047;0.5725
17.6840780603766;0.57275
17.671600177870758;0.573
17.504121952461023;0.57325
17.449943384064905;0.5735
17.519064472599933;0.57375
17.52658521798364;0.574
17.630705620133583;0.57425
17.634825678967328;0.5745
17.66404539440245;0.57475
17.66146476635655;0.575
17.620683794747222;0.57525
17.618102479492094;0.5755
17.572320820508796;0.57575
17.571438817714977;0.576
17.53895647102829;0.57625
17.53807378036641;0.5765
17.520590745647024;0.57675
17.51970736678783;0.577
17.51222364370654;0.57725
17.51303957632089;0.5775
17.508855164548603;0.57775
17.507970408307443;0.578
17.503785307515177;0.57825
17.506299862089577;0.5785
17.503714071948437;0.57875
17.506227937009573;0.579
17.510341457190798;0.57925
17.511154632409948;0.5795
17.523667462584864;0.57975
17.524479947633413;0.58
17.538592087473468;0.58025
17.539403882022913;0.5805
17.55861533119965;0.58075
17.559426434921594;0.581
17.57353719310667;0.58125
17.574347605672823;0.5815
17.586857672538006;0.58175
17.587667393620187;0.582
17.591776768837345;0.58225
17.58928579810748;0.5825
17.59339448134859;0.58275
17.594202818478713;0.583
17.60331080941587;0.58325
17.60411845407812;0.5835
17.606625752383522;0.58375
17.607432704250147;0.584
17.608239309596094;0.58425
17.60734556833946;0.5845
17.611551480398358;0.58475
17.612357045690928;0.585
17.61976226413531;0.58525
17.618967135649655;0.5855
17.623071660152142;0.58575
17.623875837560952;0.586
17.616379667794284;0.58625
17.618783150770348;0.5865
17.61458628640737;0.58675
17.61538907462359;0.587
17.609591515337257;0.58725
17.608693608466638;0.5875
17.599495353930017;0.58775
17.60199675164568;0.588
17.591097801531937;0.58825
17.591898503507114;0.5885
17.58769885748953;0.58875
17.59019886339755;0.589
17.599298521149525;0.58925
17.60009783066383;0.5895
17.619196791858858;0.58975
17.62169540465301;0.59
17.644193668964697;0.59025
17.64659158471235;0.5905
17.659089151814417;0.59075
17.65988637018935;0.591
17.657383239755625;0.59125
17.659779760431718;0.5915
17.663975932136132;0.59175
17.664771754787377;0.592
17.66716722830398;0.59225
17.664662352604477;0.5925
17.670457127607424;0.59275
17.67125155323138;0.593
17.663745629394935;0.59325
17.664539356016675;0.5935
17.65533273301521;0.59375
17.656125760309163;0.594
17.648518437817167;0.59425
17.64931076545787;0.5945
17.646802743149937;0.59475
17.65089437081204;0.595
17.66008564836287;0.59525
17.660876575721133;0.5955
17.673267152805543;0.59575
17.672457379534837;0.596
17.679847255827756;0.59625
17.679036781603056;0.5965
17.683125956779513;0.59675
17.68391478127591;0.597
17.68640325501105;0.59725
17.687191377903748;0.5975
17.682979149872832;0.59775
17.682066570837137;0.598
17.687853640715524;0.59825
17.68694035942686;0.5985
17.686126726890027;0.59875
17.686912743023925;0.599
17.685998407747462;0.59925
17.685083720979566;0.5995
17.68926868263917;0.59975
17.688353292645225;0.6
17.679137550916703;0.60025
17.679921457372586;0.6005
17.677405011931857;0.60075
17.67818821451353;0.601
17.682271065036627;0.60125
17.68305356342018;0.6015
17.687135709583245;0.60175
17.68791750344488;0.602
17.693698944924158;0.60225
17.692880033940174;0.6025
17.696960770412034;0.60275
17.696041154258857;0.603
17.698521185399773;0.60325
17.70100086375393;0.6035
17.706780189240483;0.60375
17.70755916177862;0.604
17.711637781287514;0.60425
17.707416047686376;0.6045
17.711493960894423;0.60475
17.710671520830875;0.605
17.71804872741499;0.60525
17.718825580566016;0.6055
17.734602080203228;0.60575
17.737078226245913;0.606
17.762854018613368;0.60625
17.76362945722491;0.6065
17.782704541999866;0.60675
17.783479272857576;0.607
17.787653649717402;0.60725
17.785027672498707;0.6075
17.779201341120874;0.60775
17.77827465550331;0.608
17.775747615565418;0.60825
17.776520221226626;0.6085
17.77229247240638;0.60875
17.773064369024127;0.609
17.770435910999336;0.60925
17.771207098251487;0.6095
17.773677930700085;0.60975
17.774448408264632;0.61
17.771918530864653;0.61025
17.77428829841969;0.6105
17.771757710849293;0.61075
17.774226768073028;0.611
17.77829547001048;0.61125
17.779063816581235;0.6115
17.786531807704907;0.61175
17.78729944330112;0.612
17.789666723289507;0.61225
17.790433647589722;0.6125
17.79460021612143;0.61275
17.793666428804308;0.613
17.796132285558052;0.61325
17.793497786302364;0.6135
17.79766293095697;0.61375
17.79842771944161;0.614
17.79579215167602;0.61425
17.799956227579983;0.6145
17.80731994707326;0.61475
17.81308331007565;0.615
17.807246316506962;0.61525
17.806308966287013;0.6155
17.767071259335637;0.61575
17.764533195572685;0.616
17.68359477491802;0.61625
17.674355997291517;0.6165
17.690116862613074;0.61675
17.692577370802585;0.617
17.769937521779983;0.61725
17.77409731546519;0.6175
17.839856751778164;0.61775
17.843915830638863;0.618
17.86137455196726;0.61825
17.85873291568335;0.6185
17.84619092170714;0.61875
17.84694856995865;0.619
17.836005860357904;0.61925
17.838462792824963;0.6195
17.829219367279876;0.61975
17.829975583642728;0.62
17.81573144183361;0.62025
17.81648694177262;0.6205
17.807242083379883;0.62075
17.80799686657553;0.621
17.805451291279706;0.62125
17.80620535741258;0.6215
17.810259064894325;0.62175
17.811012413645127;0.622
17.816765403585194;0.62225
17.817518034634748;0.6225
17.81657030671402;0.62275
17.819022219743257;0.623
17.816473773642723;0.62325
17.81552496833269;0.6235
17.81297580373345;0.62375
17.812026279765313;0.624
17.817776396348595;0.62425
17.818526153403628;0.6245
17.81757555085076;0.62475
17.82002458861036;0.625
17.81747326660279;0.62525
17.819821584748457;0.6255
17.81396954296776;0.62575
17.814717141181116;0.626
17.812064379308964;0.62625
17.814511257271747;0.6265
17.811957774989935;0.62675
17.817703932384003;0.627
17.82004972937444;0.62725
17.82249516588175;0.6275
17.82824024182646;0.62775
17.8289849571291;0.628
17.834729311710223;0.62825
17.833773305490393;0.6285
17.832916938390184;0.62875
17.835260210330194;0.629
17.827703121231025;0.62925
17.8284456710133;0.6295
17.819187859597655;0.62975
17.819929686904743;0.63
17.810671152855225;0.63025
17.81141225736978;0.6305
17.80545300036911;0.63075
17.806193381773912;0.631
17.798633401504915;0.63125
17.799373059482857;0.6315
17.795112355628486;0.63175
17.795851289862572;0.632
17.79328986210589;0.63225
17.79402807227924;0.6325
17.79636592030343;0.63275
17.793803406099286;0.633
17.797840529587646;0.63325
17.796977290689362;0.6335
17.8027136893253;0.63375
17.801749725416347;0.634
17.812485398883396;0.63425
17.81322070964736;0.6345
17.830655657629165;0.63475
17.83299024274975;0.635
17.847124464930072;0.63525
17.849458324091103;0.6355
17.86019182015382;0.63575
17.860924953039223;0.636
17.85335772266833;0.63625
17.85409012896217;0.6365
17.841522171841778;0.63675
17.842253851228215;0.637
17.831285167042555;0.63725
17.83201611920588;0.6375
17.826046707639293;0.63775
17.826776932263908;0.638
17.824206793000855;0.63825
17.82493628977128;0.6385
17.827365422496346;0.63875
17.828094191097218;0.639
17.82542259549509;0.63925
17.826150635611164;0.6395
17.82357831136666;0.63975
17.82760562268281;0.64
17.825032569480857;0.64025
17.825759151682067;0.6405
17.823185369207717;0.64075
17.82551122197909;0.641
17.827936709917502;0.64125
17.82696183294427;0.6415
17.83108659098073;0.64175
17.833410983948223;0.642
17.830835011768126;0.64225
17.83485867436181;0.6425
17.83728197165068;0.64275
17.83800490355613;0.643
17.835427469999587;0.64325
17.837749670902493;0.6435
17.833471506186306;0.64375
17.83589297577248;0.644
17.831614079582508;0.64425
17.83233481753788;0.6445
17.826355189560115;0.64475
17.827075195570735;0.645
17.801194835491277;0.64525
17.800214109243306;0.6455
17.767633016748384;0.64575
17.764951557928104;0.646
17.79566973270406;0.64625
17.799787540997873;0.6465
17.87210498273117;0.64675
17.87452205782559;0.647
17.888538766202803;0.64725
17.884255107784476;0.6475
17.8716710824923;0.64775
17.874086690247978;0.648
17.87980193097323;0.64825
17.88051680458979;0.6485
17.8745313110194;0.64875
17.87524545018383;0.649
17.869259222004857;0.64925
17.86837262640427;0.6495
17.852385663303878;0.64975
17.853098332625507;0.65
17.847110634290992;0.65025
17.84622256822218;0.6505
17.841934134340946;0.65075
17.84264533256917;0.651
17.846656162828744;0.65125
17.847366625041584;0.6515
17.851376719129615;0.65175
17.850486445014777;0.652
17.856195802619027;0.65225
17.856904791864338;0.6525
17.867613412672693;0.65275
17.866621664966097;0.653
17.87062954866656;0.65325
17.86973706369612;0.6535
17.875444209976813;0.65375
17.87615098743071;0.654
17.87845739597988;0.65425
17.879163435546413;0.6545
17.883269106052417;0.65475
17.883974407420013;0.655
17.896279339571333;0.65525
17.89698390242853;0.6555
17.90768809591377;0.65575
17.908391919949228;0.656
17.932495374457105;0.65625
17.936498459359605;0.6565
17.973901174578963;0.65675
17.974603520037405;0.657
17.805305495657194;0.65725
17.807607101360603;0.6575
17.84830833706991;0.65775
17.850709202707417;0.658
17.891409698195442;0.65825
17.892109823456316;0.6585
17.922809578412377;0.65875
17.938508962985992;0.659
17.902507977099532;0.65925
17.839906620675386;0.6595
17.910604893635963;0.65975
17.95130279590368;0.66
17.775300327400974;0.66025
18.029397488050297;0.6605
17.79339427777411;0.66075
17.794090696494894;0.661
17.743086744135148;0.66125
17.74218242061738;0.6615
17.814477725864116;0.66175
17.818572659797898;0.662
17.854267222341274;0.66225
17.854961413416824;0.6625
17.850655232947133;0.66275
17.851348680854798;0.663
17.843641757062436;0.66325
17.84433446149268;0.6635
17.836726794068174;0.66375
17.83911875471158;0.664
17.841410343345576;0.66425
17.843801559892857;0.6645
17.85449240427612;0.66475
17.856882876418094;0.665
17.86917297624151;0.66525
17.86986270366913;0.6655
17.877252058623718;0.66575
17.87794104102805;0.666
17.88532965080493;0.66625
17.88601788787717;0.6665
17.891705752167596;0.66675
17.892393243599052;0.667
17.894680362094395;0.66725
17.8953671075765;0.6675
17.88945347996826;0.66775
17.88843947919257;0.668
17.88582510517236;0.66825
17.88811035783055;0.6685
17.892195237090103;0.66875
17.891179742873977;0.669
17.89356387510515;0.66925
17.892547633706627;0.6695
17.88993101860141;0.66975
17.890614029712523;0.67
17.886296666963016;0.67025
17.886978930275934;0.6705
17.884260819574358;0.67075
17.886642334781367;0.671
17.88062347582007;0.67125
17.881304242613577;0.6715
17.875384635085027;0.67175
17.876064653157563;0.672
17.873344296754347;0.67225
17.872423565798563;0.6725
17.8781024602134;0.67275
17.87878097992207;0.673
17.886059124847794;0.67325
17.88673689491381;0.6735
17.892414290043376;0.67375
17.89309131015976;0.674
17.895467955186252;0.67425
17.896144225046147;0.6745
17.893520119662764;0.67475
17.89419563895943;0.675
17.8948707828595;0.67525
17.893845551286326;0.6755
17.89951994416329;0.67575
17.898493961413788;0.676
17.904167602961227;0.67625
17.903240868729025;0.6765
17.91221375864062;0.67675
17.912886272619474;0.677
17.918558410589053;0.67725
17.919230172472837;0.6775
17.921601558194332;0.67775
17.922272567677055;0.678
17.92124320084453;0.67825
17.921913457620306;0.6785
17.912583337927952;0.67875
17.913252841691033;0.679
17.900621968833153;0.67925
17.90129071927791;0.6795
17.891959092948934;0.67975
17.89262708976986;0.68
17.89989470966435;0.68025
17.90056195255606;0.6805
17.909628818368688;0.68075
17.91359530702593;0.681
17.9092614184515;0.68125
17.909927152569132;0.6815
17.92229250930257;0.68175
17.92295748857558;0.682
17.935222090311935;0.68225
17.935886314435436;0.6825
17.938250160869885;0.68275
17.93561362953911;0.683
17.93127672036695;0.68325
17.933539433277257;0.6835
17.937601768193908;0.68375
17.934863725040785;0.684
17.947225303741785;0.68425
17.947886504220836;0.6845
17.966847326401865;0.68475
17.96920777020882;0.685
17.98986783556567;0.68525
17.992227522396384;0.6855
18.021186830624963;0.68575
18.02354576017542;0.686
18.085804310971774;0.68625
18.086462482938078;0.6865
18.128820275998375;0.68675
18.10617769007675;0.687
17.820134725097283;0.68725
17.80409138098408;0.6875
17.821447657661263;0.68775
17.820403555052962;0.688
17.876059073083333;0.68825
17.881714211676535;0.6885
17.979068970756757;0.68875
17.983023350248192;0.689
18.002077350075055;0.68925
17.99933097016157;0.6895
17.96998421043199;0.68975
17.969037070810565;0.69
17.927989551221575;0.69025
17.92694165158931;0.6905
17.900993371838076;0.69075
17.8999447118922;0.691
17.88729567167601;0.69125
17.88794625111387;0.6915
17.875196450130144;0.69175
17.875846268649216;0.692
17.873195706595485;0.69225
17.873844763893374;0.6925
17.88279344046731;0.69275
17.88184173624174;0.693
17.894089651141126;0.69325
17.896437185089948;0.6935
17.908784338012705;0.69375
17.9110311098339;0.694
17.920077500478058;0.69425
17.92232350986973;0.6945
17.93296913793347;0.69475
17.932014384593842;0.695
17.92095924977545;0.69525
17.921603733402883;0.6955
17.915547835400766;0.69575
17.91619155569374;0.696
17.911834894206454;0.69625
17.91087785086357;0.6965
17.87812042558978;0.69675
17.875462618309776;0.697
17.79940442894828;0.69725
17.796745857430007;0.6975
17.78408690367972;0.69775
17.79632756762217;0.698
17.90536784918214;0.69825
17.909307748284423;0.6985
18.009947264853825;0.69875
18.015586398815174;0.699
18.061225150093307;0.69925
18.063563518613087;0.6995
18.042501504299377;0.69975
18.041439107077075;0.7
18.000476326871077;0.70025
17.99941316360631;0.7005
17.9700496172077;0.70075
17.970685687600206;0.701
17.961321374708792;0.70125
17.960256678458443;0.7015
17.957591598774158;0.70175
17.958226135580944;0.702
17.957160288803845;0.70225
17.9594940583679;0.7025
17.95682744419817;0.70275
17.95906044621973;0.703
17.964693064357682;0.70325
17.96372529853713;0.7035
17.96935714868321;0.70375
17.969988614721046;0.704
17.97221969657581;0.70425
17.972850394172667;0.7045
17.976880707436813;0.70475
17.97911063629345;0.705
17.986440180667792;0.70525
17.98536934048509;0.7055
17.989398115670586;0.70575
17.986626506149552;0.706
17.983954511847273;0.70625
17.98458213268905;0.7065
17.986909368600195;0.70675
17.985836219506048;0.707
17.98146268533195;0.70725
17.982088766003272;0.7075
17.977714461445395;0.70775
17.978339771583705;0.708
17.967264696343623;0.70825
17.967889235650574;0.7085
17.971913389430007;0.70875
17.972537157607373;0.709
17.981460540108156;0.70925
17.980383536857843;0.7095
17.986006147781943;0.70975
17.98662837280598;0.71
17.9889502118555;0.71025
17.99127166485605;0.7105
17.996892731733208;0.71075
17.999113412412562;0.711
18.00813370681971;0.71125
18.008753614880277;0.7115
18.010973136519898;0.71175
18.009992271664228;0.712
18.00561102023893;0.71225
18.004529382169693;0.7125
17.995147357382212;0.71275
17.994064945802204;0.713
17.97638214735541;0.71325
17.976998961967567;0.7135
17.970915389564443;0.71375
17.97153143007182;0.714
17.977147083415495;0.71425
17.97776234952128;0.7145
17.990077228315002;0.71475
17.990691719722506;0.715
17.999605823669658;0.71525
18.000219540082327;0.7155
17.99083286888641;0.71575
17.991445810007818;0.716
17.985458363372473;0.71625
17.986070528906318;0.7165
17.981682306535312;0.71675
17.983893696185426;0.717
17.981204697782648;0.71725
17.981815311252987;0.7175
17.977425536522464;0.71775
17.976335373517117;0.718
17.980344822163;0.71825
17.980953882386185;0.7185
17.98486255411276;0.71875
17.98547083726882;0.719
17.98777873178049;0.71925
17.988386237573906;0.7195
17.993993354575217;0.71975
17.99460008271059;0.72
18.00020642190621;0.72025
18.000812372088276;0.7205
18.008017933183005;0.72075
18.008623105116627;0.721
18.014227887815387;0.72125
18.01483228120556;0.7215
18.022136285213417;0.72175
18.02273989976526;0.722
18.0316431247874;0.72225
18.032245960206165;0.7225
18.047848405947903;0.72275
18.048450461938977;0.723
18.069052128105767;0.72325
18.07135340437466;0.7235
18.08025429067207;0.72375
18.079254786924423;0.724
18.066454893058168;0.72425
18.067054608999754;0.7245
18.051053934675664;0.72475
18.05165287001239;0.725
18.042251414936437;0.72525
18.042849569374326;0.7255
18.035047333252606;0.72575
18.03564470649783;0.726
18.026241689036574;0.72625
18.02523828079542;0.7265
17.98743448170098;0.72675
17.986430291679877;0.727
17.967025710658742;0.72725
17.96922073856424;0.7275
18.034815375323035;0.72775
18.038809620861812;0.728
18.091003475107286;0.72825
18.091596937986168;0.7285
18.077190009425195;0.72875
18.07618268935112;0.729
18.066774977690716;0.72925
18.068966874370766;0.7295
18.06795837931807;0.72975
18.066849492459447;0.73
18.055740213721734;0.73025
18.056330543031777;0.7305
18.045320480316448;0.73075
18.045910025502632;0.731
18.043099178517224;0.73125
18.04368793928714;0.7315
18.047676307739316;0.73175
18.0465642838007;0.732
18.05045186739826;0.73225
18.04773905845897;0.7325
18.050025856909834;0.73275
18.050612262677873;0.733
18.05119827569011;0.73325
18.05338389587359;0.7335
18.050669123155387;0.73375
18.05125395746257;0.734
18.05513839872225;0.73425
18.054122446861527;0.7345
18.05300610180754;0.73475
18.055289363487425;0.735
18.05417223182836;0.73525
18.056454706757506;0.7355
18.060336788202076;0.73575
18.05921847608927;0.736
18.06149977034632;0.73625
18.06038067090047;0.7365
18.055961177678988;0.73675
18.056541290609147;0.737
18.05212100961824;0.73725
18.054400334633577;0.7375
18.051679265582493;0.73775
18.052257802392326;0.738
18.056135944990434;0.73825
18.055013693304204;0.7385
18.05899104726102;0.73875
18.059568006788297;0.739
18.063444571813456;0.73925
18.064020742263946;0.7395
18.069596518067222;0.73975
18.06847189915077;0.74
18.074046885442073;0.74025
18.07302147686864;0.7405
18.075195673358;0.74075
18.0757694748377;0.741
18.081342881235287;0.74125
18.081915892478346;0.7415
18.08918850849447;0.74175
18.089760729211264;0.742
18.09533255455635;0.74225
18.09590398445738;0.7425
18.118175018842003;0.74275
18.122045657637894;0.743
18.182615900772753;0.74325
18.184885748174278;0.7435
18.027055199770203;0.74375
18.029324255488262;0.744
18.06659291525622;0.74425
18.068761179001847;0.7445
18.092729046652934;0.74475
18.093296518137294;0.745
18.10886359338274;0.74525
18.109430272317127;0.7455
18.11659655486831;0.74575
18.117162440964155;0.746
18.11942793053256;0.74625
18.118293023501433;0.7465
18.125557719798696;0.74675
18.127822019352294;0.747
18.15498592209018;0.74725
18.15724942794033;0.7475
18.17781253683074;0.74775
18.171675248689407;0.748
18.102237563444366;0.74825
18.104499481023655;0.7485
18.26176100135533;0.74875
18.09732212436747;0.749
18.282882849988162;0.74925
18.293443178145516;0.7495
17.97060310876766;0.74975
17.984562641782723;0.75
17.92172177711888;0.75025
18.198980514704296;0.7505
17.954538854467167;0.75075
18.031796796335694;0.751
18.03395434023811;0.75125
18.06451148610266;0.7515
18.06506823385759;0.75175
18.075624583431185;0.752
18.076180534751735;0.75225
18.07843608774755;0.7525
18.07899124234695;0.75275
18.074545998478293;0.753
18.075100356069917;0.75325
18.082354315050214;0.7535
18.08120787534757;0.75375
18.093461036890396;0.754
18.09561379960712;0.75425
18.10616616342618;0.7545
18.108418128276043;0.75475
18.12226969408518;0.755
18.12282086078209;0.75525
18.13677162829528;0.7555
18.13892199655328;0.75575
18.147871965484633;0.756
18.150021535017896;0.75625
18.14057070508165;0.7565
18.141119475604494;0.75675
18.123367846515038;0.757
18.122215817741903;0.75725
18.11616338921374;0.7575
18.11671056085921;0.75775
18.120557332606992;0.758
18.119403704385785;0.75825
18.124949676124295;0.7585
18.12549524775126;0.75875
18.121040419195417;0.759
18.121585190385538;0.75925
18.115529561250398;0.7595
18.117673531718797;0.75975
18.108217101719546;0.76
18.107160271181478;0.76025
18.114303040033437;0.7605
18.113245408204296;0.76075
18.08878737562293;0.761
18.087628942218238;0.76125
18.03487010791914;0.7615
18.04371087265456;0.76175
18.13095123635346;0.762
18.136491198944796;0.76225
18.197030760357553;0.7625
18.200869920520734;0.76275
18.194708679363355;0.763
18.19524703681445;0.76325
18.17248499280307;0.7635
18.17302254725828;0.76375
18.160259700109172;0.764
18.160796451284845;0.76425
18.157932800714413;0.7645
18.16186874832702;0.76475
18.164004294051814;0.765
18.164539437817965;0.76525
18.17347417955466;0.7655
18.172308519191105;0.76575
18.17614245665652;0.766
18.175075991880146;0.76625
18.17720912479123;0.7665
18.176141855319052;0.76675
18.174974183392898;0.767
18.17550610894207;0.76725
18.1677376318959;0.7675
18.16826875218372;0.76775
18.155399469734892;0.768
18.15432978447879;0.76825
18.1481596963448;0.7685
18.148689205262336;0.76875
18.14251831116082;0.769
18.1430470139697;0.76925
18.146975313618427;0.7695
18.145803210036483;0.76975
18.149630703153363;0.77
18.148557792898576;0.77025
18.144084479201645;0.7705
18.144610761992123;0.77075
18.141736641199568;0.771
18.143962116753556;0.77125
18.13448718858369;0.7715
18.136711856619577;0.77175
18.13053612079085;0.772
18.132759981027164;0.77225
18.13158343725817;0.7725
18.132106489413555;0.77275
18.127629137423025;0.773
18.128151381216288;0.77325
18.12697322072308;0.7735
18.12919465587315;0.77375
18.139715686596265;0.774
18.14023631282221;0.77425
18.157456534480794;0.7745
18.157976351501823;0.77475
18.171795763815144;0.775
18.172314771350607;0.77525
18.187833374038078;0.7755
18.18835157180745;0.77575
18.193869364588625;0.776
18.192686752311527;0.77625
18.189903734906096;0.7765
18.192120312302286;0.77675
18.18263648443007;0.777
18.18145225121944;0.77725
18.173667612600404;0.7775
18.17078256850299;0.77775
18.182997118857237;0.778
18.185211263593203;0.77825
18.200725002640972;0.7785
18.20123833593063;0.77875
18.21175126339229;0.779
18.212263784956086;0.77925
18.21777590055216;0.7795
18.21828761011067;0.77975
18.21209891356181;0.78
18.212609810835765;0.78025
18.199820301862754;0.7805
18.198630386573015;0.78075
18.180840064896785;0.781
18.17964933676434;0.78125
18.15515820210596;0.7815
18.15396666085195;0.78175
18.116174712932622;0.782
18.11498235827832;0.78225
18.04718959681939;0.7825
18.044396428486206;0.78275
18.003202853209157;0.783
18.002008870918644;0.78325
18.095914481545094;0.7835
18.10301968501894;0.78375
18.21852448127065;0.784
18.222428870230683;0.78425
18.276232851829544;0.7845
18.276736425997736;0.78475
18.243939592665786;0.785
18.241042351764236;0.78525
18.199944703223654;0.7855
18.19874664697461;0.78575
18.1692481829477;0.786
18.168049311073542;0.78625
18.150250031282766;0.7865
18.14905034350602;0.78675
18.137950247673963;0.787
18.13674974371729;0.78725
18.142248831566683;0.7875
18.142747511152873;0.78775
18.139945782406592;0.788
18.140443645258593;0.78825
18.154241099639638;0.7885
18.15643814548052;0.78875
18.170234782712047;0.789
18.172431011265033;0.78925
18.181226831070326;0.7895
18.180022242058772;0.78975
18.187217244161253;0.79
18.187711837308655;0.79025
18.19150602143189;0.7905
18.193699796461885;0.79075
18.200893162329585;0.791
18.201386118965946;0.79125
18.218478666301948;0.7915
18.22067080426859;0.79175
18.246162532796887;0.792
18.248353851817864;0.79225
18.295444761262573;0.7925
18.29763526106208;0.79275
18.36812535114747;0.793
18.370315031449838;0.79325
18.404104301900308;0.7935
18.372893162430014;0.79375
18.098381612970112;0.794
18.08556965345177;0.79425
18.129357283806176;0.7945
18.134844503964537;0.79475
18.182031313858076;0.795
18.187517713418035;0.79525
18.259703702575674;0.7955
18.266789281262263;0.79575
18.258974449409102;0.796
18.257759206947497;0.79625
18.21494355380878;0.7965
18.213727489924295;0.79675
18.17421101522541;0.797
18.1730941296435;0.79725
18.145176833109968;0.7975
18.14565912555623;0.79775
18.12784100691372;0.798
18.126622477113884;0.79825
18.110503536088196;0.7985
18.110984183768146;0.79875
18.101464420085232;0.799
18.10194424497098;0.79925
18.09242365835693;0.7995
18.09290266017463;0.79975
18.089981250355663;0.8
18.09385942883162;0.80025
18.105937195534114;0.8005
18.106414550394767;0.80075
18.11859149334522;0.801
18.119068024317144;0.80125
18.13124414324222;0.8015
18.13171985005214;0.80175
18.138795144678618;0.802
18.139270027053396;0.80225
18.14474449710822;0.8025
18.145218554774857;0.80275
18.14909219998509;0.803
18.149565432670734;0.80325
18.145038252763598;0.8035
18.145510660195526;0.80375
18.14928265489838;0.804
18.149754236804025;0.80425
18.153525405844363;0.8045
18.153996161951294;0.80475
18.166166505056747;0.805
18.164936435092677;0.80525
18.172105951991036;0.8055
18.172575055683808;0.80575
18.183043746102992;0.806
18.183512023180604;0.80625
18.198979886848676;0.8065
18.19944733703926;0.80675
18.214914373684426;0.807
18.21708099671626;0.80725
18.230847206066866;0.8075
18.23131300166837;0.80775
18.236778383452904;0.808
18.235543351352632;0.80825
18.23940790529973;0.8085
18.238172045226385;0.80875
18.23363577106482;0.809
18.23409908274725;0.80925
18.227861980205926;0.8095
18.228324463373117;0.80975
18.2254865321811;0.81
18.224248186562175;0.81025
18.22970942644866;0.8105
18.230170251772893;0.81075
18.242330662467225;0.811
18.244490658464027;0.81125
18.25995023969569;0.8115
18.260409406094617;0.81175
18.267468157593232;0.812
18.26632649412398;0.81225
18.260084415619318;0.8125
18.258841922011726;0.81275
18.234299013233702;0.813
18.233155689217753;0.81325
18.201911949896413;0.8135
18.20066779520223;0.81375
18.182823225067775;0.814
18.18157823942563;0.81425
18.188732838208395;0.8145
18.190887021348694;0.81475
18.206340788779166;0.815
18.208394140432464;0.81525
18.220547076241264;0.8155
18.220999596138252;0.81575
18.22815170005615;0.816
18.228603387927674;0.81625
18.232354659685573;0.8165
18.231105515262612;0.81675
18.23495595459157;0.817
18.23540597760525;0.81725
18.230855584236465;0.8175
18.232904774418053;0.81775
18.22675354808286;0.818
18.227201905163767;0.81825
18.225949845593657;0.8185
18.224697369305435;0.81875
18.220144476232026;0.819
18.220591166306377;0.81925
18.222737439461444;0.8195
18.223183295630207;0.81975
18.22862873474566;0.82
18.227373756740818;0.82025
18.234518361548712;0.8205
18.2332625491024;0.82075
18.23710631933494;0.821
18.237549672179423;0.82125
18.23459260756895;0.8215
18.233435125436642;0.82175
18.22387722571564;0.822
18.224318908339107;0.82225
18.216360173240215;0.8225
18.215201020352154;0.82275
18.218941449608142;0.823
18.217681460941407;0.82325
18.22152105428519;0.8235
18.22196022957277;0.82375
18.22739898673742;0.824
18.229437325712446;0.82425
18.236575246431162;0.8245
18.240312748826913;0.82475
18.235749832833054;0.825
18.234586498382953;0.82525
18.20002274541001;0.8255
18.198758573847627;0.82575
18.157493983629237;0.826
18.147928974688284;0.82625
18.176763546958234;0.8265
18.180497700372566;0.82675
18.255931434864785;0.827
18.2580647503684;0.82725
18.270097646816957;0.8275
18.263930124144007;0.82775
18.24936218228312;0.828
18.251393821167888;0.82825
18.25682504073192;0.8285
18.260655840908843;0.82875
18.254386221632302;0.829
18.253116182835953;0.82925
18.250245724453485;0.8295
18.250674846418597;0.82975
18.239403548665006;0.83
18.24153183112644;0.83025
18.248659693736656;0.8305
18.24908713642943;0.83075
18.261114159138547;0.831
18.261540761797814;0.83125
18.27536694434106;0.8315
18.275792706702127;0.83175
18.286218048814874;0.832
18.28664297061319;0.83225
18.285367472030966;0.8325
18.28749155300212;0.83275
18.291215213460585;0.833
18.293338453340315;0.83325
18.283761272575283;0.8335
18.284183671099477;0.83375
18.277905648846907;0.834
18.278327205751594;0.83425
18.28704834174758;0.8345
18.28916905676893;0.83475
18.299589350749727;0.835
18.301709223624066;0.83525
18.33042867532606;0.8355
18.33254770578985;0.83575
18.366266314949584;0.836
18.36838450273944;0.83625
18.323802269093594;0.8365
18.322519613946266;0.83675
18.447936537231676;0.837
18.25335303888407;0.83725
18.422069118837708;0.8375
18.430884777026872;0.83775
18.12130001338586;0.838
18.17831482784899;0.83825
18.143729220350593;0.8385
18.175843190825027;0.83875
18.06955673920666;0.839
18.09666986542988;0.83925
18.172082569429108;0.8395
18.17419485113875;0.83975
18.21790671049327;0.84
18.22001814742712;0.84025
18.24042916187478;0.8405
18.24083975377075;0.84075
18.246249923049557;0.841
18.24665966964573;0.84125
18.25206899349382;0.8415
18.250777894528404;0.84175
18.254486372684077;0.842
18.254894427895437;0.84225
18.25370206009712;0.8425
18.25410926922377;0.84275
18.267816055210048;0.843
18.268222417990643;0.84325
18.27692835750025;0.8435
18.277333873673587;0.84375
18.279438966445397;0.844
18.279843635750435;0.84425
18.27194788152347;0.8445
18.2723517036993;0.84475
18.262755102212733;0.845
18.263158076998597;0.84525
18.25856062799174;0.8455
18.258962755127033;0.84575
18.257664458339356;0.846
18.25976573756361;0.84625
18.26676659273472;0.8465
18.26886702378762;0.84675
18.279267030657273;0.847
18.279666613278653;0.84725
18.286765771586758;0.8475
18.288764505516593;0.84775
18.294162815003194;0.848
18.291260699981613;0.84825
18.294958160386912;0.8485
18.293755196154184;0.84875
18.297451807218533;0.849
18.297847993515077;0.84925
18.296543754978963;0.8495
18.296939091545347;0.84975
18.292334003149413;0.85
18.292728489726354;0.85025
18.29152255121139;0.8505
18.291916187539748;0.85075
18.30060939864669;0.851
18.302702184467474;0.85125
18.3063945449374;0.8515
18.30678647999177;0.85175
18.305477989565915;0.852
18.305869073595176;0.85225
18.29795973201492;0.8525
18.296649964760523;0.85275
18.29043977176739;0.853
18.290829152970936;0.85325
18.2878181083066;0.8535
18.289906637709837;0.85375
18.28699474111612;0.854
18.288982418460947;0.85425
18.292769669679828;0.8545
18.293156494708285;0.85475
18.300142893481873;0.855
18.298928865936155;0.85525
18.30761441200672;0.8555
18.307999531629168;0.85575
18.323384224739122;0.856
18.323768491272226;0.85625
18.330852331164134;0.8565
18.32953574435053;0.85675
18.323218730767103;0.857
18.323601290349576;0.85725
18.320683423033675;0.8575
18.322765128755155;0.85775
18.32644640744979;0.858
18.325127259053367;0.85825
18.327207683501687;0.8585
18.325887680730588;0.85875
18.3229672506759;0.859
18.323346393273507;0.85925
18.315425108459273;0.8595
18.317403396169105;0.85975
18.312781256338926;0.86
18.313158688904664;0.86025
18.31023569380229;0.8605
18.310612270967763;0.86075
18.314288420337085;0.861
18.314664141846272;0.86125
18.308439435431346;0.8615
18.30711430102836;0.86175
18.267488738573384;0.862
18.264562748002504;0.86225
18.184936329251826;0.8625
18.18190948225747;0.86275
18.17728220695558;0.863
18.18435450328232;0.86325
18.27642637117387;0.8635
18.28009781056643;0.86375
18.33546882139621;0.864
18.33753940359945;0.86425
18.352909557112408;0.8645
18.34987928187135;0.86475
18.320248577812574;0.865
18.319017444872387;0.86525
18.24768588298712;0.8655
18.241353892093123;0.86575
18.29842147212676;0.866
18.302088623024417;0.86625
18.385855344722493;0.8665
18.389521637157415;0.86675
18.409887500265633;0.867
18.40695293398359;0.86725
18.37391793824778;0.8675
18.37268251299469;0.86775
18.349646658160843;0.868
18.35001037368277;0.86825
18.347073659497024;0.8685
18.34573651554018;0.86875
18.351098941748834;0.869
18.353160938059588;0.86925
18.360222504409073;0.8695
18.360583640733935;0.86975
18.357544346970844;0.87
18.359604623056484;0.87025
18.354964468927555;0.8705
18.355323884520782;0.87075
18.353982869772906;0.871
18.354341424620692;0.87125
18.34969954900091;0.8715
18.35005724285036;0.87175
18.340414506105866;0.872
18.34077133870425;0.87225
18.332827740582374;0.8725
18.33148371167711;0.87275
18.328539251925353;0.873
18.330594361264005;0.87325
18.334249039630002;0.8735
18.33290328696029;0.87375
18.33825710319183;0.874
18.338610488261615;0.87425
18.33736344210665;0.8745
18.339315964663953;0.87475
18.341368055870568;0.875
18.341719715663555;0.87525
18.340370943979995;0.8755
18.34242174075699;0.87575
18.346072105931647;0.876
18.344822039441116;0.87625
18.34677154122254;0.8765
18.347120611213104;0.87675
18.34416924934999;0.877
18.34451745557041;0.87725
18.348165229811606;0.8775
18.346912572010822;0.87775
18.350559482105318;0.878
18.350905960032392;0.87825
18.347952005729347;0.8785
18.348297619133504;0.87875
18.351942800182215;0.879
18.350587548812832;0.87925
18.349331864962746;0.8795
18.35127574856935;0.87975
18.35001919957007;0.88
18.35196221790234;0.88025
18.34730480350362;0.8805
18.347646956311383;0.88075
18.344688676263132;0.881
18.34502996329637;0.88125
18.342070817348635;0.8815
18.34401123835748;0.88175
18.34275122626048;0.882
18.34309078099521;0.88225
18.3417299024993;0.8825
18.34206859071036;0.88275
18.345706845566042;0.883
18.346044667004016;0.88325
18.34478205496196;0.8835
18.345119009377587;0.88375
18.34375553018861;0.884
18.344091617332772;0.88425
18.349427270747835;0.8845
18.34976249037158;0.88475
18.348397276141807;0.885
18.34873162799633;0.88525
18.347465545872986;0.8855
18.34939902970963;0.88575
18.346432079444135;0.886
18.3467646950144;0.88625
18.35209687635833;0.8865
18.352428623413868;0.88675
18.35605993611895;0.887
18.358090814411554;0.88725
18.35672125822967;0.8875
18.358751267511302;0.88775
18.360780842194472;0.888
18.35940998221724;0.88825
18.353038687517653;0.8885
18.35336695803381;0.88875
18.347094793703803;0.889
18.34572219446576;0.88925
18.339349160257818;0.8895
18.33807569101814;0.88975
18.333401786684906;0.89
18.33702744719631;0.89025
18.33405267249057;0.8905
18.334377462505923;0.89075
18.333001817180627;0.891
18.335025736452952;0.89125
18.333649220261194;0.8915
18.335672268543668;0.89175
18.334294881238698;0.892
18.337917058284642;0.89225
18.334938799619863;0.8925
18.33696010518276;0.89275
18.333880974911736;0.893
18.334201408745216;0.89325
18.337921406621646;0.8935
18.336540968479493;0.89375
18.345160094257245;0.894
18.3454787838934;0.89425
18.350797037326487;0.8945
18.351114854495044;0.89475
18.36483223533763;0.895
18.36514917979283;0.89525
18.37206568779924;0.8955
18.370781759295483;0.89575
18.37439739422019;0.896
18.37471259251202;0.89625
18.378327354109654;0.8965
18.37704167895178;0.89675
18.37235556697712;0.897
18.3742690181244;0.89725
18.367982032332378;0.8975
18.368294609539827;0.89775
18.376906749685535;0.898
18.37721845270831;0.89825
18.385829718546987;0.8985
18.38454054714041;0.89875
18.39815093842745;0.899
18.39676089234699;0.89925
18.400470408837943;0.8995
18.399079487839227;0.89975
18.394388129289794;0.9
18.394696333128607;0.90025
18.38500409929464;0.9005
18.385311427726904;0.90075
18.383918318364422;0.901
18.38422477114623;0.90125
18.396230786011387;0.9015
18.396536362898978;0.90175
18.4035415017481;0.902
18.40384620249787;0.90225
18.40745046508742;0.9025
18.406054289455916;0.90275
18.41475767554253;0.903
18.41506062328645;0.90325
18.4236631326269;0.9035
18.42566520350311;0.90375
18.444266835854332;0.904
18.444568029619838;0.90425
18.46986878473892;0.9045
18.471869101150887;0.90475
18.505468978795072;0.905
18.50746841761082;0.90525
18.561067417537505;0.9055
18.56466597851451;0.90575
18.623364100481243;0.906
18.623661783377134;0.90625
18.39395902714162;0.9065
18.38085583171418;0.90675
18.29285219703429;0.907
18.334848123041446;0.90725
18.311743609675187;0.9075
18.333738656875045;0.90775
18.42903326458059;0.908
18.432627432731387;0.90825
18.451321161267053;0.9085
18.446614450127203;0.90875
18.39850729925147;0.909
18.397199708579524;0.90925
18.342491678051033;0.9095
18.339383207605696;0.90975
18.298074297183234;0.91
18.29666494672338;0.91025
18.268655156165885;0.9105
18.26724492545053;0.91075
18.25923425451711;0.911
18.259523143305437;0.91125
18.269811591755335;0.9115
18.271699599806674;0.91175
18.285387167399307;0.912
18.285674294473136;0.91225
18.26756098096807;0.9125
18.26624722682404;0.91275
18.24153303198099;0.913
18.240118396378893;0.91325
18.285403319957737;0.9135
18.28898780265753;0.91375
18.362671844418294;0.914
18.364555445180084;0.91425
18.37823860488296;0.9145
18.375121323467006;0.91475
18.37880360087233;0.915
18.380685437039055;0.91525
18.40096683190733;0.9155
18.40464778541731;0.91575
18.399928297509177;0.916
18.400208368123142;0.91625
18.393787997199425;0.9165
18.392367184678257;0.91675
18.386045930499908;0.917
18.386324234604654;0.91725
18.384902096932798;0.9175
18.386879517424653;0.91775
18.38875649602056;0.918
18.38903303266088;0.91825
18.391009127285987;0.9185
18.39128477983628;0.91875
18.393259990252172;0.919
18.393534758474104;0.91925
18.395409084442527;0.9195
18.395682968097915;0.91975
18.400956409380772;0.92
18.3996294082316;0.92025
18.40820196459094;0.9205
18.40677407839934;0.92075
18.410445749597375;0.921
18.41071697812564;0.92125
18.412587763924744;0.9215
18.412858106935317;0.92175
18.40982800709801;0.922
18.411797464353494;0.92225
18.408666478642463;0.9225
18.410635049905615;0.92275
18.400903178083695;0.923
18.401170863117436;0.92325
18.388138104947615;0.9235
18.38840490351502;0.92375
18.381971258760455;0.924
18.383937170624748;0.92425
18.387502639048744;0.9245
18.389467663973313;0.92475
18.396332245339337;0.925
18.396596383087722;0.92525
18.400260077159395;0.9255
18.398823327495293;0.92575
18.38908613403639;0.926
18.389348496723667;0.92625
18.38291041549812;0.9265
18.38157189030078;0.92675
18.37843292107269;0.927
18.38039350775491;0.92725
18.383953650288515;0.9275
18.382613348614612;0.92775
18.386172602674325;0.928
18.386431412408793;0.92825
18.384989777759174;0.9285
18.388647698666652;0.92875
18.397205175072422;0.929
18.3991622069177;0.92925
18.411018794143736;0.9295
18.412974936691782;0.92975
18.429930634503116;0.93
18.43178588751904;0.93025
18.457040695680867;0.9305
18.458995058929933;0.93075
18.5009489772076;0.931
18.50450245045524;0.93125
18.539755478614257;0.9315
18.54670806162606;0.93175
18.495260199432085;0.932
18.508811891973792;0.93225
18.71906313919265;0.9325
18.564313941030157;0.93275
18.42956429742783;0.933
18.438214208327203;0.93325
18.203463673669823;0.9335
18.180312693397273;0.93375
18.24396126745114;0.934
18.249209395773043;0.93425
18.324457078304608;0.9345
18.32630431498749;0.93475
18.346551105763364;0.935
18.34679745057392;0.93525
18.355443349360872;0.9355
18.35568880206595;0.93575
18.364233808630903;0.936
18.361178368997507;0.93625
18.368022483107545;0.9365
18.36826615090284;0.93675
18.365209372325214;0.937
18.367152147316517;0.93725
18.363994475818625;0.9375
18.36593635777342;0.93775
18.372877793122818;0.938
18.373118781808742;0.93825
18.383359323773146;0.9385
18.385199418957995;0.93875
18.398839067305286;0.939
18.39907826875702;0.93925
18.409317023255227;0.9395
18.411155330741956;0.93975
18.41479319115927;0.94
18.413330604449264;0.94025
18.406867570554045;0.9405
18.407104089415736;0.94075
18.40404016097649;0.941
18.407575785178466;0.94125
18.414510961963856;0.9415
18.414745691274867;0.94175
18.421679973053728;0.942
18.42191380724268;0.94225
18.41714719378399;0.9425
18.417380132619947;0.94275
18.41421262369286;0.943
18.414444666945045;0.94325
18.409676262318854;0.9435
18.409907409756656;0.94375
18.405138109200827;0.944
18.405368360593783;0.94425
18.397298163877938;0.9445
18.39582751899575;0.94475
18.392756425889672;0.945
18.392984884502198;0.94525
18.394912894775825;0.9455
18.39514045665308;0.94575
18.396967570076516;0.946
18.39559423498869;0.94625
18.39082045133218;0.9465
18.3910462190496;0.94675
18.392871538083572;0.947
18.393096408376742;0.94725
18.398320829871768;0.9475
18.39854480251134;0.94775
18.402168326238158;0.948
18.400691400994948;0.94825
18.40261402672445;0.9485
18.401136203369436;0.94875
18.40305793087268;0.949
18.403279209176993;0.94925
18.408500038225196;0.9495
18.40872041796013;0.94975
18.413940348324658;0.95
18.41245982926167;0.95025
18.417678860714066;0.9505
18.417897442624763;0.95075
18.413115574936715;0.951
18.41163325759288;0.95125
18.360250490536238;0.9515
18.3587672737098;0.95175
18.28068360705658;0.952
18.275899490519635;0.95225
18.30941492404201;0.9525
18.314629907566804;0.95275
18.41654444103711;0.953
18.420058524396058;0.95325
18.490272157586784;0.9535
18.49878534055246;0.95375
18.48739807323626;0.954
18.485910355581396;0.95425
18.457822187531086;0.9545
18.45803356902858;0.95475
18.44154450001713;0.955
18.441754980440027;0.95525
18.43526501024057;0.9555
18.435474589362087;0.95575
18.427383717747922;0.956
18.425892395341435;0.95625
18.416100622086013;0.9565
18.416308397925054;0.95675
18.406515722801984;0.957
18.406722596660252;0.95725
18.413629019443317;0.9575
18.413834991094664;0.95775
18.437340511557792;0.958
18.439245580776237;0.95825
18.456150198693532;0.9585
18.456354365253244;0.95875
18.44985808039896;0.959
18.448361344074282;0.95925
18.436964156222835;0.9595
18.437166516788267;0.95975
18.412368425714234;0.96
18.40916988294443;0.96025
18.37937088842255;0.9605
18.37797144209233;0.96075
18.35977154389751;0.961
18.358371193781856;0.96125
18.36517039168915;0.9615
18.367069137563202;0.96175
18.377267431347832;0.962
18.377465272986893;0.96225
18.387662662424248;0.9625
18.38785959960378;0.96275
18.389756084469397;0.963
18.388252116965024;0.96325
18.39014769703461;0.9635
18.390342824622117;0.96375
18.39213749967154;0.964
18.39073172212688;0.96425
18.384225491932167;0.9645
18.386118809031444;0.96475
18.381311673368778;0.965
18.37980408488826;0.96525
18.386696043534;0.9655
18.388487549250122;0.96575
18.37367860198077;0.966
18.370569201670122;0.96625
18.312459348262358;0.9665
18.317649041701692;0.96675
18.372838281932353;0.967
18.37802706889859;0.96725
18.453215402544664;0.9675
18.45500328281487;0.96775
18.470190709653526;0.968
18.46877768300495;0.96825
18.462264202813497;0.9685
18.460750269023535;0.96875
18.452635881579457;0.969
18.452821040425675;0.96925
18.449705745506616;0.9695
18.451489996766735;0.96975
18.445073794150503;0.97
18.446857137602407;0.97025
18.440440027066963;0.9705
18.440622462488705;0.97075
18.43410444381218;0.971
18.432585970981968;0.97125
18.429467043942658;0.9715
18.42964766263886;0.97175
18.42152782701521;0.972
18.421707537016367;0.97225
18.416886792586997;0.9725
18.4153655936718;0.97275
18.410543940215486;0.973
18.412421832162792;0.97325
18.405899269458477;0.9735
18.406076252047313;0.97375
18.404552779874095;0.974
18.40642885288364;0.97425
18.403304471020782;0.9745
18.403479634230383;0.97475
18.396954342457313;0.975
18.39712859564648;0.97525
18.394002393742788;0.9755
18.395775736691185;0.97575
18.394348624436628;0.976
18.39452105692409;0.97625
18.396293034098573;0.9765
18.3964645559051;0.97675
18.405035622288707;0.977
18.405206233194455;0.97725
18.41537638856742;0.9775
18.41554608835271;0.97775
18.42731533249544;0.978
18.427484120940754;0.97825
18.434352453633814;0.9785
18.432820330519796;0.97875
18.427987751543913;0.979
18.42815471665138;0.97925
18.430021225787442;0.9795
18.428487278897364;0.97975
18.42365287592643;0.98
18.425518016819943;0.98025
18.423982701523226;0.9805
18.425846929981624;0.98075
18.421010702140507;0.981
18.421174017945255;0.98125
18.413036877341277;0.9815
18.413199280274004;0.98175
18.403361226688876;0.982
18.403522716531363;0.98225
18.40028374974695;0.9825
18.400444326281153;0.98275
18.399004446079495;0.983
18.400764109087522;0.98325
18.40762331525081;0.9835
18.406082064514948;0.98375
18.41294035682554;0.984
18.413098192128224;0.98425
18.41655557036865;0.9845
18.415112491492483;0.98475
18.421868955445426;0.985
18.420424962173186;0.98525
18.423880511621494;0.9855
18.422335603736105;0.98575
18.427490238462795;0.986
18.42764441574736;0.98625
18.434498135535602;0.9865
18.434651397773372;0.98675
18.43810420240652;0.987
18.438256549380924;0.98725
18.421808438642472;0.9875
18.420259870137095;0.98775
18.38371084381072;0.988
18.373861359609307;0.98825
18.402411417478845;0.9885
18.405861017365318;0.98875
18.492710159214752;0.989
18.49615884297319;0.98925
18.508007068586693;0.9895
18.503154836001336;0.98975
18.484902145163225;0.99
18.485048996018485;0.99025
18.47019538851325;0.9905
18.470341322593693;0.99075
18.44888679820599;0.991
18.44903181529635;0.99125
18.440776373810998;0.9915
18.439320473696178;0.99175
18.431064114898156;0.992
18.427907297363216;0.99225
18.43305002103767;0.9925
18.43319228586784;0.99275
18.443334091800082;0.993
18.44347543878076;0.99325
18.453616326756258;0.9935
18.453756755672995;0.99375
18.472196725477396;0.994
18.474036236115914;0.99425
18.494175287535022;0.9945
18.494313879681204;0.99475
18.531152012500986;0.995
18.532889685940887;0.99525
18.59802689994747;0.9955
18.601563654467313;0.99575
18.661699949446998;0.996
18.66013578483315;0.99625
18.401971160572405;0.9965
18.395406076611415;0.99675
18.345540532896862;0.997
18.35737452937544;0.99725
18.405808065993874;0.9975
18.4126411426989;0.99775
18.516073759437273;0.998
18.51950591615578;0.99825
18.54133761280122;0.9985
18.536468849320414;0.99875
18.491599625660204;0.999
18.488429941767457;0.99925
18.43015979758905;0.9995
18.428689193071897;0.99975
18.38541812816291;1.0
18.383946602809047;1.00025
18.369074616957267;1.0005
18.54750217055456;1.00075
18.36762926354793;1.001
18.361055895884412;1.00125
18.362882067511045;1.0015
18.36630777837491;1.00175
18.36643302842309;1.002
18.361557817602694;1.00225
18.360082145860858;1.0025
18.356806013144737;1.00275
18.358629419401495;1.003
18.360452364578336;1.00325
18.360574848622466;1.0035
18.377296871481125;1.00375
18.379118433101567;1.004
18.40093953343107;1.00425
18.401060172416926;1.0045
18.41278035000646;1.00475
18.412900066147007;1.005
18.409719320785925;1.00525
18.4098381138706;1.0055
18.411656445348424;1.00575
18.411774315166824;1.006
18.418491723273238;1.00625
18.42030866961514;1.0065
18.428725154139997;1.00675
18.428841176795324;1.007
18.437356737528646;1.00725
18.437471836287507;1.0075
18.445886473019474;1.00775
18.447700647672136;1.008
18.459414360193094;1.00825
18.459527610529985;1.0085
18.471340398630456;1.00875
18.471452724442177;1.009
18.48486458791284;1.00925
18.484975988990154;1.0095
18.49348692762186;1.00975
18.491897403755697;1.01
18.475307417339458;1.01025
18.47541696832092;1.0105
18.44552605664791;1.01075
18.445634682268263;1.011
18.42914284512983;1.01125
18.425850545180502;1.0115
18.430957782368164;1.01175
18.432764556640745;1.012
18.45287086794618;1.01225
18.45297671623244;1.0125
18.469782101447496;1.01275
18.469887023539357;1.013
18.486591482456042;1.01325
18.488395478145605;1.0135
18.5217990105561;1.01375
18.521902079635627;1.014
18.548704685332282;1.01425
18.545506827594195;1.0145
18.49390850636952;1.01475
18.614009721606422;1.015
18.449110473253093;1.01525
18.427510761257746;1.0155
18.62601058556861;1.01575
18.581109946133942;1.016
18.306208842902013;1.01625
18.31960727582112;1.0165
18.261405244839576;1.01675
18.31150274990572;1.017
18.38659979096791;1.01725
18.388296367974522;1.0175
18.413392480873956;1.01775
18.415188129614634;1.018
18.421983314144995;1.01825
18.422078034413502;1.0185
18.42547229036864;1.01875
18.423866081958902;1.019
18.428959409132826;1.01925
18.427452271838952;1.0195
18.432544670025848;1.01975
18.432636603642095;1.02
18.43602807263631;1.02025
18.43441907695712;1.0205
18.44120961655317;1.02075
18.439599691373132;1.021
18.443089301365706;1.02125
18.441478446479593;1.0215
18.444867126663535;1.02175
18.443355341866287;1.022
18.445043092036617;1.02225
18.44513037712333;1.0225
18.446917197075237;1.02275
18.44870355184118;1.023
18.445389441370022;1.02325
18.447174865610634;1.0235
18.452259824511923;1.02375
18.45064431802281;1.024
18.455728346092243;1.02425
18.45421190866918;1.0245
18.459295005702607;1.02475
18.459377637141532;1.025
18.46775980293498;1.02525
18.469541503032005;1.0255
18.477922737381668;1.02575
18.478003505933064;1.026
18.483083808635303;1.02625
18.483163645437514;1.0265
18.479943016288853;1.02675
18.480021921138494;1.027
18.465100359935636;1.02725
18.465178332629485;1.0275
18.456855839169286;1.02775
18.455332879504297;1.028
18.458709453583793;1.02825
18.457085561357076;1.0285
18.453861202773464;1.02875
18.453936377782302;1.029
18.45071108633296;1.02925
18.452385328374806;1.0295
18.450859103857262;1.02975
18.45253241272974;1.03
18.447605254941703;1.03025
18.447677630442605;1.0305
18.454449539181937;1.03075
18.45452098110922;1.031
18.464591956173976;1.03125
18.46466246432576;1.0315
18.46973250551414;1.03175
18.466502079688723;1.032
18.433171186799115;1.03225
18.429939826794957;1.0325
18.3717079996259;1.03275
18.368375705241636;1.033
18.391842943591854;1.03325
18.395209714626276;1.0335
18.50527601829465;1.03375
18.50864185454673;1.034
18.605407223332314;1.03425
18.608772124601195;1.0345
18.662236558303203;1.03475
18.665600524388186;1.035
18.480664022806014;1.03525
18.470727053506575;1.0355
18.484089616439782;1.03575
18.48415171155557;1.036
18.50421333880388;1.03625
18.504274498134695;1.0365
18.511035189498013;1.03675
18.511095412843844;1.037
18.506155168122227;1.03725
18.506214455283228;1.0375
18.499573274276916;1.03775
18.4996316250534;1.038
18.498089507562796;1.03825
18.498146921755254;1.0385
18.494803867580934;1.03875
18.494860344990023;1.039
18.498316353932722;1.03925
18.49667189435927;1.0395
18.49502696621991;1.03975
18.495081569464908;1.04
18.49183570404456;1.04025
18.491889369909185;1.0405
18.4886425670091;1.04075
18.49029529529468;1.041
18.483747554716285;1.04125
18.48709934522432;1.0415
18.482150666769197;1.04175
18.483901519301366;1.042
18.47725190277128;1.04225
18.479001817129422;1.0425
18.47405126232629;1.04275
18.477400238312427;1.043
18.472448745038356;1.04325
18.47249678245466;1.0435
18.469244350511914;1.04375
18.47259144916074;1.044
18.469338078351758;1.04425
18.469384238035623;1.0445
18.466029928163014;1.04475
18.466075148684613;1.045
18.46451989955115;1.04525
18.46616418071335;1.0455
18.46460799212197;1.04575
18.464651333727794;1.046
18.46129420548163;1.04625
18.46473660733428;1.0465
18.463078539236605;1.04675
18.464820001139458;1.047
18.46146099299373;1.04725
18.46320151475032;1.0475
18.453241566360166;1.04775
18.45328114777421;1.048
18.443320258943423;1.04825
18.4433588998188;1.0485
18.44009707035135;1.04875
18.441734770492108;1.049
18.44847200019213;1.04925
18.448508759402493;1.0495
18.463545048074295;1.04975
18.46528086615865;1.05
18.490316213606707;1.05025
18.491951090369618;1.0505
18.50038549639858;1.05075
18.502019431644783;1.051
18.505452896059456;1.05125
18.505485889593853;1.0515
18.502118412199234;1.05175
18.503850463826893;1.052
18.49718204442814;1.05225
18.49891315395431;1.0525
18.49564379235675;1.05275
18.49727395958684;1.053
18.49230365559597;1.05325
18.492332880335567;1.0535
18.48906163375706;1.05375
18.490789915811916;1.054
18.485817726451614;1.05425
18.485845065627657;1.0545
18.48917193329157;1.05475
18.489198329394895;1.055
18.492524253889204;1.05525
18.492549706726077;1.0555
18.490974687857133;1.05575
18.490999197234;1.056
18.492623234808327;1.05625
18.49264680053179;1.0565
18.491069894356084;1.05675
18.49109251623292;1.057
18.481114666114046;1.05725
18.481136343951214;1.0575
18.472757549696208;1.05775
18.471178283300826;1.058
18.457798544716894;1.05825
18.457818333896252;1.0585
18.446237650790774;1.05875
18.444556495352344;1.059
18.436274867532866;1.05925
18.434592767284276;1.0595
18.43131019455852;1.05975
18.431327149307577;1.06
18.42794363148344;1.06025
18.429659641038125;1.0605
18.434675177923666;1.06075
18.434690242092124;1.061
18.438004833495576;1.06125
18.43801895208613;1.0615
18.4414325978159;1.06175
18.439745770637042;1.062
18.44305847050171;1.06225
18.4414706973621;1.0625
18.44478245117042;1.06275
18.44309373187889;1.063
18.44650453943977;1.06325
18.44481487380533;1.0635
18.43982473492787;1.06375
18.4398341227597;1.064
18.43154303725316;1.06425
18.433151478360607;1.0645
18.42985944603442;1.06475
18.433166940227004;1.065
18.434873960890783;1.06525
18.4348805079782;1.0655
18.44158658144172;1.06575
18.43989218123383;1.066
18.436597307307043;1.06625
18.434901959613885;1.0665
18.43820613810691;1.06675
18.436609842738694;1.067
18.441613073461824;1.06725
18.439915830228927;1.0675
18.444918112992635;1.06775
18.444919921705612;1.068
18.44822125632053;1.06825
18.446622116790103;1.0685
18.448222503067043;1.06875
18.444922415104106;1.069
18.439921852854052;1.06925
18.439920816269677;1.0695
18.43661930530378;1.06975
18.438217319909203;1.07
18.441614860038793;1.07025
18.439911925645433;1.0705
18.44660851668201;1.07075
18.446604633101444;1.071
18.453200274856673;1.07125
18.45319544190066;1.0715
18.454890134186392;1.07175
18.453184351666867;1.072
18.45987809429511;1.07225
18.45657136202417;1.0725
18.459864154807114;1.07275
18.456556472597036;1.073
18.459848315347045;1.07325
18.458139683010277;1.0735
18.463130575539882;1.07375
18.46312099288904;1.074
18.466510935010945;1.07425
18.46480040185882;1.0745
18.463089393385907;1.07475
18.464777909545464;1.075
18.45976595029078;1.07525
18.459753515575162;1.0755
18.456440605351933;1.07575
18.456427219574444;1.076
18.451413358196064;1.07625
18.45139902117019;1.0765
18.452984208450232;1.07675
18.452968919989623;1.077
18.449653155741824;1.07725
18.451336915660317;1.0775
18.447920199698594;1.07775
18.447903007810183;1.078
18.442885339948628;1.07825
18.44286719606749;1.0785
18.436248576120356;1.07875
18.436229480060838;1.079
18.432809907842564;1.07925
18.434489859419187;1.0795
18.437769334744377;1.07975
18.436148333771833;1.08
18.43772685645527;1.08025
18.437704902748425;1.0805
18.44108247260506;1.08075
18.439359565978954;1.081
18.43603618282392;1.08125
18.436012323093767;1.0815
18.43098798674235;1.08175
18.432563173723537;1.082
18.434237883991216;1.08225
18.434212117499303;1.0825
18.42918587420173;1.08275
18.429159154052442;1.083
18.42083195700543;1.08325
18.420804283014686;1.0835
18.40577613203423;1.08375
18.405747504018102;1.084
18.397318398920365;1.08425
18.40228881669511;1.0845
18.390658757296436;1.08475
18.387228220678477;1.085
18.32719720679538;1.08525
18.328865715601317;1.0855
18.395533747050482;1.08575
18.398801301097095;1.086
18.447068377695384;1.08625
18.447034976799614;1.0865
18.452001098364065;1.08675
18.45366674234303;1.087
18.506931908690852;1.08725
18.50859659736186;1.0875
18.518560808310422;1.08775
18.506824541490936;1.088
18.475187796857803;1.08825
18.475150574365465;1.0885
18.466712873968373;1.08875
18.470074695620998;1.089
18.458336039277842;1.08925
18.458296904893423;1.0895
18.44155729242229;1.08975
18.44151720181899;1.09
18.419876633038122;1.09025
18.41983558603428;1.0905
18.408094060762107;1.09075
18.408052057176242;1.091
18.398009575231363;1.09125
18.397966614882158;1.0915
18.386223176083348;1.09175
18.386179258789667;1.092
18.391134862955873;1.09225
18.39108998853675;1.0925
18.401044635487093;1.09275
18.40099880376173;1.093
18.414352493315516;1.09325
18.41430570410331;1.0935
18.42085843608;1.09375
18.4208106892005;1.094
18.417462463419746;1.09425
18.420713758692692;1.0945
18.422364574974313;1.09475
18.422314912219605;1.095
18.420564770383596;1.09525
18.422214149421322;1.0955
18.41716304928785;1.09575
18.418811469938262;1.096
18.415359411327675;1.09625
18.415306873411208;1.0965
18.406953856144018;1.09675
18.406900359481277;1.097
18.400146383378182;1.09725
18.398491927789948;1.0975
18.386736992671814;1.09775
18.38668157797904;1.098
18.378325683666908;1.09825
18.378269309690722;1.0985
18.381512456005815;1.09875
18.381455122567527;1.099
18.38809730933123;1.09925
18.388039016252318;1.0995
18.3912802432862;1.09975
18.391220990388316;1.1
18.401161257514122;1.10025
18.4011010446191;1.1005
18.417740351658747;1.10075
18.419279178588585;1.101
18.442617525364163;1.10125
18.442555391941045;1.1015
18.46249277827482;1.10175
18.465729684321104;1.102
18.45896611003552;1.10225
18.458902055373727;1.1025
18.460537520291403;1.10275
18.460472504744242;1.103
18.453707008687967;1.10325
18.453641032078316;1.1035
18.443574574871064;1.10375
18.443507637021984;1.104
18.42014021848689;1.10425
18.42007231922161;1.1045
18.411703939181994;1.10475
18.41163507832392;1.105
18.419865736603274;1.10525
18.419795913975985;1.1055
18.438025610397986;1.10575
18.437954825825237;1.106
18.452883560213724;1.10625
18.452811813519453;1.1065
18.46773958569845;1.10675
18.46766687670676;1.107
18.494293686500463;1.10725
18.49592001503564;1.1075
18.522445862268412;1.10775
18.524071228154916;1.108
18.460696112651313;1.10825
18.430620515713777;1.1085
18.633844437298517;1.10875
18.637067877361755;1.109
18.456990835859735;1.10925
18.686913312748732;1.1095
18.301835307985026;1.10975
18.306756821524942;1.11
18.226677853324805;1.11025
18.234998403340978;1.1105
18.339918471529835;1.11075
18.343138057847778;1.111
18.406357162251226;1.11125
18.407975784696628;1.1115
18.437893925140454;1.11175
18.441111583539183;1.112
18.43442875984933;1.11225
18.43434545402743;1.1125
18.40926166603003;1.11275
18.409177395813717;1.113
18.387392643335076;1.11325
18.38730740855074;1.1135
18.377221691417347;1.11375
18.383835491891563;1.114
18.405348809930068;1.11425
18.406961645489574;1.1145
18.42517399852682;1.11475
18.425085868998547;1.115
18.434997256861536;1.11525
18.434908162072578;1.1155
18.394818584588496;1.11575
18.39142852436613;1.116
18.318037981362345;1.11625
18.314546955534023;1.1165
18.339455446838073;1.11675
