25.090357085881045;0.00025
25.07741418425227;0.0005
25.077771295103858;0.00075
25.074728418425998;0.001
25.07348555420887;0.00125
25.06884270244265;0.0015
25.07079986311752;0.00175
25.09455703622368;0.002
25.09821422175129;0.00225
25.20687141969055;0.0025
25.21392863003163;0.00275
25.775985852764723;0.003
25.837943087880003;0.00325
24.566700335367653;0.0035
24.585357595217864;0.00375
25.045714867420813;0.004
25.06607215196668;0.00425
25.25642944884565;0.0045
25.216786758047913;0.00475
24.405444079563633;0.005
24.370801413383013;0.00525
23.816158759496222;0.0055
23.818216117893453;0.00575
24.25857348856488;0.006
24.287230871500693;0.00625
24.859288266691067;0.0065
24.877945674126188;0.00675
25.128303093796237;0.007
25.1336605256914;0.00725
25.170717969801863;0.0075
25.164375426117804;0.00775
25.038132894629403;0.008
25.031790375326846;0.00825
24.998847868200315;0.0085
25.020805373239995;0.00875
25.04456289043607;0.009
25.046520419778716;0.00925
25.093577961258124;0.0095
25.09563551486448;0.00975
25.137593080587948;0.01
25.13795065841873;0.01025
25.145008248347;0.0105
25.142065850362943;0.01075
25.13572346445675;0.011
25.13778109061859;0.01125
25.11973872883865;0.0115
25.12009637910712;0.01175
25.10215404141418;0.012
25.100811715750016;0.01225
25.0928694021048;0.0125
25.093227100468727;0.01275
25.100284810831976;0.013
25.102242533184732;0.01325
25.122600267517175;0.0135
25.122958013819492;0.01375
25.133315772081858;0.014
25.128673542294468;0.01425
25.107431324447504;0.0145
25.104389118531145;0.01475
25.03644692453557;0.015
25.035104742450976;0.01525
24.985462572267533;0.0155
24.984220413975436;0.01575
24.93787826756486;0.016
24.93993613302599;0.01625
24.928594010349023;0.0165
24.93725189952412;0.01675
24.961009800541483;0.017
24.961367713391287;0.01725
24.96672563806372;0.0175
24.960383574548963;0.01775
24.940741522837204;0.018
24.942799482918627;0.01825
24.92315745478341;0.0185
24.921815438421742;0.01875
24.917173433823805;0.019
24.920831440979786;0.01925
24.94288945987987;0.0195
24.944947490514235;0.01975
24.976905532873072;0.02
24.980663586946562;0.02025
24.994321652724896;0.0205
24.994679730198246;0.02075
25.00503781935681;0.021
25.010395920190764;0.02125
25.00245403269029;0.0215
25.004412156845586;0.02175
24.991470292646827;0.022
24.9935284400842;0.02225
25.002186599147887;0.0225
25.004244769828073;0.02275
25.01790295211495;0.023
25.0165611459987;0.02325
25.021919351469503;0.0235
25.018977568517553;0.02375
25.024335797133027;0.024
25.021394037306113;0.02425
25.030052289027;0.0245
25.02871055228587;0.02475
25.040768827072903;0.025
25.044427113378298;0.02525
25.03478541119223;0.0255
25.03514372050489;0.02575
25.02050204130646;0.026
25.01586037358713;0.02625
25.02291871733708;0.0265
25.0232770725465;0.02675
25.030335439205576;0.027
25.030693817304492;0.02725
25.041052206833434;0.0275
25.03971060778259;0.02775
25.06006902014215;0.028
25.062127443902295;0.02825
25.08408587905321;0.0285
25.08614432558509;0.02875
25.128202783488106;0.029
25.131861252752458;0.02925
25.177219733368336;0.0295
25.179278225325913;0.02975
25.217936728615385;0.03
25.216595243226934;0.03025
25.23035376915075;0.0305
25.22401230637702;0.03075
24.894370854895932;0.031
24.85642941469767;0.03125
24.343387985772424;0.0315
24.36374656811038;0.03175
24.684105161701726;0.032
24.69446376653665;0.03225
24.903222382605335;0.0325
24.90858100989798;0.03275
25.017239648404757;0.033
25.020898298115867;0.03325
25.084656959021494;0.0335
25.086615631111826;0.03375
25.126974314377048;0.034
25.12903300880735;0.03425
25.151091714392923;0.0345
25.15145043112395;0.03475
25.16340915899062;0.035
25.16216789798313;0.03525
25.147526648091656;0.0355
25.1461854093064;0.03575
25.128244181617543;0.036
25.12690296501527;0.03625
25.113961759489776;0.0365
25.11262056503125;0.03675
25.09297938162988;0.037
25.095038209275856;0.03725
25.085397047959365;0.0375
25.089055897670598;0.03775
25.084414758399742;0.038
25.08647363013699;0.03825
25.080132512872524;0.0385
25.080491406596547;0.03875
25.069150311299243;0.039
25.0712092269708;0.03925
25.064868153601402;0.0395
25.070227091181255;0.03975
25.080586039700535;0.04
25.082644999149437;0.04025
25.094703969518154;0.0405
25.093362950796877;0.04075
25.102021942975792;0.041
25.10078094604509;0.04125
25.106139959994966;0.0415
25.10809898481561;0.04175
25.111858020497206;0.042
25.112217067029956;0.04225
25.10257612440404;0.0425
25.10123519260966;0.04275
25.046594271637;0.043
25.03865336147626;0.04325
24.88561246211762;0.0435
24.88097157355128;0.04375
24.82303069576743;0.044
24.82008982875626;0.04425
24.85374897250796;0.0445
24.855808127012732;0.04475
24.952767292260766;0.045
24.95812646824224;0.04525
25.096885654947368;0.0455
25.102244852366322;0.04575
25.219204060489307;0.046
25.22626327930651;0.04625
25.353322508808137;0.0465
25.356981748984364;0.04675
25.455640999825395;0.047
25.461000261321416;0.04725
25.536359533462623;0.0475
25.531718816239216;0.04775
25.12047810964138;0.048
25.080837413659314;0.04825
23.80449672828321;0.0485
23.623156053503262;0.04875
24.14691538930966;0.049
24.16887473569261;0.04925
24.864234092642292;0.0495
24.887993460148913;0.04975
25.244952838202657;0.05
25.252012226793724;0.05025
25.33737162591231;0.0505
25.34103103554861;0.05075
25.321390455692814;0.051
25.320149886335127;0.05125
25.25880932746573;0.0515
25.25586877907483;0.05175
25.15952824115262;0.052
25.156587713689298;0.05225
25.07024719667505;0.0525
25.065606690100083;0.05275
25.01926619395459;0.053
25.014625708228767;0.05325
25.0316852329128;0.0535
25.033744767996907;0.05375
25.089104313471267;0.054
25.09106386932608;0.05425
25.13142343555155;0.0545
25.133483012137866;0.05475
25.16714259907523;0.055
25.16750219635384;0.05525
25.18456180396389;0.0555
25.186621421895573;0.05575
25.1669810501391;0.056
25.16734068868466;0.05625
25.12100033752245;0.0565
25.11965999664267;0.05675
25.08171966603552;0.057
25.0787793456912;0.05725
25.049139035599904;0.0575
25.04609873575183;0.05775
25.029858446137183;0.058
25.031818166746152;0.05825
25.018877897568945;0.0585
25.017537638595762;0.05875
25.011297389816797;0.059
25.01495715122225;0.05925
25.043616922802325;0.0595
25.04397670454722;0.05975
25.082736496447126;0.06
25.086396298492257;0.06025
25.140056110672806;0.0605
25.142115932978975;0.06075
25.210775765400964;0.061
25.212835607928973;0.06125
25.288195460553204;0.0615
25.290255323263857;0.06175
25.357215196051136;0.062
25.35927507890524;0.06225
25.412934971816373;0.0625
25.414994874774727;0.06275
25.458654787770516;0.063
25.46071471079394;0.06325
25.511074643835197;0.0635
25.516434586884483;0.06375
25.353494539932015;0.064
25.335454502967988;0.06425
24.5275144759826;0.0645
24.489574458966064;0.06475
24.001534451908572;0.065
24.001894454800336;0.06525
24.268954467631563;0.0655
24.291014490392442;0.06575
24.849674523073187;0.066
24.870034565663996;0.06625
25.23369461815508;0.0665
25.24405468053664;0.06675
25.36781475279888;0.067
25.369774834932;0.06725
25.39013492692621;0.0675
25.388895028771714;0.06775
25.36085514045872;0.068
25.359615261977428;0.06825
25.318275393318043;0.0685
25.315335534470773;0.06875
25.263995685425822;0.069
25.2626558461734;0.06925
25.22471601670371;0.0695
25.22337619700696;0.06975
25.175436387073347;0.07
25.17249658689309;0.07025
25.139456796456386;0.0705
25.131517015753456;0.07075
25.145177244774487;0.071
25.143937483509703;0.07125
25.185897731949304;0.0715
25.189657990083496;0.07175
25.275018257902488;0.072
25.281978535396494;0.07225
25.384038822555713;0.0725
25.389399119370356;0.07275
25.504759425830635;0.073
25.510119741926754;0.07325
25.637180067648927;0.0735
25.644140402987357;0.07375
25.85450074793226;0.074
25.866561102473838;0.07425
26.116921466602303;0.0745
26.127281840307866;0.07475
26.384342223580735;0.075
26.379702616411127;0.07525
25.425063018789242;0.0755
25.358723430705293;0.07575
24.155783852149497;0.076
24.701144283112054;0.07625
22.30650472358319;0.0765
23.5218651735531;0.07675
22.278825633012005;0.077
22.239186101950114;0.07725
23.776246580357643;0.0775
23.848307068224795;0.07775
25.22026756554179;0.078
25.252328072298837;0.07825
25.662688588486148;0.0785
25.671349114093932;0.07875
25.725109649112408;0.079
25.70377019353179;0.07925
25.564130747342286;0.0795
25.557791310534114;0.07975
25.406551883097485;0.08
25.398512465022616;0.08025
25.268873056299714;0.0805
25.264233656918996;0.08075
25.219594266870683;0.081
25.219954886144983;0.08125
25.230315514732112;0.0815
25.234076152622286;0.08175
25.219436799805717;0.082
25.218097456272623;0.08225
25.185158122013224;0.0825
25.183818797017732;0.08275
25.13417948127636;0.083
25.132840174779325;0.08325
25.071600877516843;0.0835
25.068561589479135;0.08375
25.03392231065642;0.084
25.034283041038904;0.08425
25.049643780616815;0.0845
25.048404529380363;0.08475
25.085365287319775;0.085
25.087426054425258;0.08525
25.146086830687036;0.0855
25.14984761609533;0.08575
25.230208410640344;0.086
25.233869214312318;0.08625
25.317530027101455;0.0865
25.321290848997982;0.08675
25.34665167999211;0.087
25.34701252007407;0.08725
25.305673369234075;0.0875
25.30433422746235;0.08775
25.203095094749102;0.088
25.198455971084567;0.08825
25.11881685645896;0.0885
25.112477750862496;0.08875
25.127838654285405;0.089
25.131499566717903;0.08925
25.218560488150214;0.0895
25.223921418572555;0.08975
25.392582357975158;0.09
25.404643306348234;0.09025
25.89830426368201;0.0905
26.90206522996671;0.09075
25.412426205192556;0.091
25.01778718934977;0.09125
20.889748182428573;0.0915
20.946809184419195;0.09175
23.99047019531185;0.092
24.087531215096774;0.09225
25.437892243764182;0.0925
25.461553281304298;0.09275
25.65531432770736;0.093
25.658975382963572;0.09325
25.64263644706318;0.0935
25.641397519996392;0.09375
25.62335860175344;0.094
25.620419692324557;0.09425
25.62908079169996;0.0945
25.631141899869874;0.09475
25.67820301682453;0.095
25.681864142554154;0.09525
25.790525277048978;0.0955
25.855886420299214;0.09575
25.79464757229511;0.096
25.781608733026875;0.09625
24.955369902484748;0.0965
24.904031080658953;0.09675
24.109392267539715;0.097
24.04805346311727;0.09725
24.271814667381843;0.0975
24.295475880323664;0.09775
24.88913710193296;0.098
24.912898332199962;0.09825
25.283259571114904;0.0985
25.291920818668007;0.09875
25.38898207484951;0.099
25.387643339649635;0.09925
25.286304613058622;0.0995
25.2800658950667;0.09975
25.195427185664087;0.1
25.20578848484103;0.10025
25.19774979258776;0.1005
25.1965111088945;0.10075
25.205172433751486;0.101
25.205533767148953;0.10125
25.220895109077134;0.1015
25.224556459526255;0.10175
25.216617818486558;0.102
25.216979185948272;0.10225
25.20234056190163;0.1025
25.202701946336866;0.10275
25.188063339244213;0.103
25.181724740613912;0.10325
25.195486150436192;0.1035
25.19584756870129;0.10375
25.23620899539944;0.104
25.236570430520874;0.10425
25.271931874055838;0.1045
25.273893325994557;0.10475
25.324254786327273;0.105
25.324616255044223;0.10525
25.336677732135637;0.1055
25.33033921759176;0.10575
25.260700711402826;0.106
25.257762213559072;0.10625
25.141423724050732;0.1065
25.136785242868054;0.10675
25.04054677000127;0.107
25.03090830544062;0.10725
25.054569849176342;0.1075
25.056631401198672;0.10775
25.098592961497854;0.108
25.097354530064127;0.10825
24.981016106887726;0.1085
24.9746776919589;0.10875
24.90343928526788;0.109
24.91210088680491;0.10925
25.08416249656024;0.1095
25.107824114524096;0.10975
25.03488574068673;0.11
25.026847375038376;0.11025
24.855609017569282;0.1105
24.802570668269688;0.11075
24.85133232712984;0.111
24.858293994139977;0.11125
25.150355669290338;0.1115
25.164017352571175;0.11175
25.381079043972726;0.112
25.386440743485245;0.11225
25.476802451098962;0.1125
25.478864166804126;0.11275
25.495825890590982;0.113
25.494587622449778;0.11325
25.46154936237076;0.1135
25.45861111034417;0.11375
25.37897286636025;0.114
25.376034630409254;0.11425
25.296396402481424;0.1145
25.29335818256701;0.11475
25.22371997065626;0.115
25.220781766739414;0.11525
25.18784357080672;0.1155
25.189805382848434;0.11575
25.216867202854804;0.116
25.218929030816067;0.11625
25.242590866722477;0.1165
25.24465271056429;0.11675
25.256614562331748;0.117
25.2553764220151;0.11725
25.2623382896046;0.1175
25.257700165090498;0.11775
25.263062048463038;0.118
25.260123939712475;0.11825
25.223785838829063;0.1185
25.22254774580305;0.11875
25.206209660624687;0.119
25.211571583284222;0.11925
25.09863351377192;0.1195
25.077295452078015;0.11975
24.405957398192776;0.12
24.35801935210645;0.12025
24.59008131380929;0.1205
24.608743283291545;0.12075
24.91740526054348;0.121
24.92616724555534;0.12125
25.11312923831738;0.1215
25.116891238819857;0.12175
25.217253247053023;0.122
25.220915263007143;0.12225
25.267977286672462;0.1225
25.26993931803924;0.12275
25.28870135709773;0.123
25.29066340383819;0.12325
25.321025458250887;0.1235
25.324787520326066;0.12375
25.446749590053987;0.124
25.88051166742491;0.12425
25.199173752429086;0.1245
24.987835845056786;0.12475
24.561597945298256;0.125
24.575260053143765;0.12525
24.948922168583568;0.1255
24.962684291607925;0.12575
25.198046422207092;0.126
25.203408560371333;0.12625
25.247070706090913;0.1265
25.242432859356082;0.12675
25.259495020157107;0.127
25.259857188484254;0.12725
25.278519364327778;0.1275
25.277181547677948;0.12775
25.284243738525017;0.128
25.282905936859247;0.12825
25.23666814267092;0.1285
25.230330355950272;0.12875
25.045692576687586;0.129
25.042754804873123;0.12925
24.96971704049714;0.1295
24.96347928354991;0.12975
24.98384153402169;0.13
24.985803791902754;0.13025
25.086166057183355;0.1305
25.091528329853773;0.13075
25.233590609904265;0.131
25.2389528973251;0.13125
25.351015192106544;0.1315
25.356377494238867;0.13175
25.476739803712338;0.132
25.480402120517216;0.13225
25.572464444643774;0.1325
25.576126776082287;0.13275
25.63978911482301;0.133
25.643551460856223;0.13325
25.382213814172193;0.1335
25.33927617476119;0.13375
23.98793854261348;0.134
23.710000917719338;0.13425
24.20366330006903;0.1345
24.224025689652834;0.13475
24.89608808646101;0.135
24.92475049048384;0.13525
25.333412901711597;0.1355
25.343775320134544;0.13575
25.475837745742965;0.136
25.479500178527122;0.13625
25.49986261847729;0.1365
25.493625065583753;0.13675
25.46058751983678;0.137
25.457649981226634;0.13725
25.398012449743604;0.1375
25.39507492537796;0.13775
25.337037408119976;0.138
25.33579989795993;0.13825
25.291162394888097;0.1385
25.291524898894753;0.13875
25.266887409970177;0.139
25.265549928104647;0.13925
25.249212453288433;0.1395
25.249574985511813;0.13975
25.238337524765072;0.14
25.24200007103849;0.14025
25.230662624322342;0.1405
25.231025184606903;0.14075
25.221387751882457;0.141
25.22175032613928;0.14125
25.20881290736766;0.1415
25.209175495557865;0.14175
25.20283809070019;0.142
25.206600692784907;0.14225
25.200263301802302;0.1425
25.20232591774265;0.14275
25.19268854059624;0.143
25.194651170353353;0.14325
25.200013807004275;0.1435
25.19877645053928;0.14375
25.21573910094866;0.144
25.2178017582227;0.14425
25.22816442235167;0.1445
25.226827093325873;0.14475
25.233889771135583;0.145
25.232552455771092;0.14525
25.237915147222683;0.1455
25.23497784548064;0.14575
25.220340550535248;0.146
25.2207032623768;0.14625
25.182765980995576;0.1465
25.18142870638187;0.14675
25.140091438525968;0.147
25.140454177418157;0.14725
25.127516923048724;0.1475
25.132879675407963;0.14775
25.158242434486155;0.148
25.160305200273598;0.14825
25.195667972760578;0.1485
25.19763075193739;0.14875
25.219693537794313;0.149
25.220056330321654;0.14925
25.228719129509695;0.1495
25.23248193534873;0.14975
25.22784474782905;0.15
25.22820756694095;0.15025
25.221870392674713;0.1505
25.227233225020647;0.15075
25.220896063969036;0.151
25.222958909510183;0.15125
25.213321761634372;0.1515
25.215384620331903;0.15175
25.204047485593073;0.152
25.202710357408176;0.15225
25.196473235767506;0.1525
25.19683612066136;0.15275
25.19049901208003;0.153
25.192561910013822;0.15325
25.199524814453035;0.1535
25.198287725387956;0.15375
25.203650642808885;0.154
25.199013566706128;0.15425
25.20597649706998;0.1545
25.204739433890737;0.15475
25.211702377158705;0.155
25.212065326864177;0.15525
25.219128282997463;0.1555
25.217791245548852;0.15575
25.211554214508652;0.156
25.210217189867166;0.15625
25.19888017161469;0.1565
25.199243159741535;0.15675
25.203006154237997;0.157
25.204969155094382;0.15725
25.19873216230099;0.1575
25.197395175848122;0.15775
25.20105819572609;0.158
25.1981212219252;0.15825
25.191784254435753;0.1585
25.19214729324805;0.15875
25.184210338352404;0.159
25.182873389739115;0.15925
25.1882364473985;0.1595
25.18699951132085;0.15975
25.205662581496483;0.16
25.204325657915707;0.16025
25.213088740568825;0.1605
25.21175182944615;0.16075
25.22381492453799;0.161
25.225778025834654;0.16125
25.23614113332645;0.1615
25.236504247003683;0.16175
25.245267366856684;0.162
25.242230492875734;0.16225
25.249293625051173;0.1625
25.247956763373292;0.16275
25.266719907832414;0.163
25.267083058418844;0.16325
25.282446215122903;0.1635
25.282809377934896;0.16375
25.304772546845147;0.164
25.30353572184396;0.16425
25.33049890292165;0.1645
25.33256209006854;0.16475
25.364625283274936;0.165
25.363288482531164;0.16525
25.373651687827532;0.1655
25.37571489915436;0.16575
25.369378116501956;0.166
25.368041339860653;0.16625
25.35840456922076;0.1665
25.36046780457259;0.16675
25.33913104590647;0.167
25.339494293212713;0.16725
25.30655754648165;0.1675
25.306920805703587;0.16775
25.262284070868844;0.168
25.26094734196775;0.16825
25.224710618990628;0.1685
25.223373901927786;0.16875
25.18203719076956;0.169
25.180800485506257;0.16925
25.13116378612822;0.1695
25.133127092625756;0.16975
25.091890404989186;0.17
25.09055372320885;0.17025
25.07761704727506;0.1705
25.082980377178142;0.17075
25.11494371290842;0.171
25.11700705445623;0.17125
25.150670401811887;0.1715
25.15443375496572;0.17175
25.19979711390805;0.172
25.201760478629218;0.17225
25.23882384911954;0.1725
25.240887225369356;0.17275
25.264550607368978;0.173
25.268213995108745;0.17325
25.258577388578985;0.1735
25.257340787770026;0.17375
25.249304192672202;0.174
25.249667603275842;0.17425
25.26173101957128;0.1745
25.265394441548832;0.17475
25.255757869198845;0.175
25.25782130251165;0.17525
25.26648474147758;0.1755
25.266848186086964;0.17575
25.27221163633013;0.176
25.269275092197425;0.17625
25.279638553679174;0.1765
25.283302020765717;0.17675
25.32206549344739;0.177
25.329028971714518;0.17725
25.319392455557452;0.1775
25.32315594496652;0.17775
25.35181943993206;0.178
25.352182940444408;0.17825
25.42754644649391;0.1785
25.43120995807089;0.17875
25.619973475165697;0.179
25.628636997768677;0.17925
25.88070052587015;0.1795
25.89606405946047;0.17975
26.05472759852998;0.18
25.996791143069004;0.18025
24.580454693067903;0.1805
25.36081824851701;0.18075
23.374481809406664;0.181
22.73324537572721;0.18125
24.596908947468997;0.1815
24.62397252462236;0.18175
24.679336107177647;0.182
24.674699695125206;0.18225
25.170063288455378;0.1825
25.195426887158504;0.18275
25.550790491224937;0.183
25.55775410064502;0.18325
25.668117715409103;0.1835
25.67018133550753;0.18375
25.683844960930642;0.184
25.674208591668805;0.18425
25.622972227712346;0.1845
25.61993586905163;0.18475
25.545299515677;0.185
25.542363167578802;0.18525
25.4677268247474;0.1855
25.464790487173133;0.18575
25.40675415484635;0.186
25.40551782775741;0.18625
25.33918150589666;0.1865
25.33624518925446;0.18675
25.261608877821157;0.187
25.2602725715871;0.18725
25.220636270542652;0.1875
25.219299974678165;0.18775
25.209663683983994;0.188
25.208427398450485;0.18825
25.218791118068008;0.1885
25.22075484282691;0.18875
25.23951857271755;0.189
25.23988230773029;0.18925
25.25354604785548;0.1895
25.253909793083483;0.18975
25.24097354340465;0.19
25.242937298809352;0.19025
25.236701059287938;0.1905
25.237064824830775;0.19075
25.259028595428216;0.191
25.256092371070633;0.19125
25.271456151748374;0.1915
25.27011993745181;0.19175
25.2771837281713;0.192
25.275847523897205;0.19225
25.272911324619894;0.1925
25.273275130329722;0.19275
25.25533894101706;0.193
25.25570275667227;0.19325
25.237666577285722;0.1935
25.23973040284777;0.19375
25.22509423334879;0.194
25.228758068779147;0.19425
25.224121909129206;0.1945
25.229485754389334;0.19475
25.223249604549903;0.195
25.22521345960127;0.19525
25.220577319533817;0.1955
25.230941184337908;0.19575
25.223005054003917;0.196
25.2283689285222;0.19625
25.238732807883142;0.1965
25.24079669207712;0.19675
25.25116058109448;0.197
25.248124474925618;0.19725
25.255188373560898;0.1975
25.255552276990695;0.19775
25.249216185205384;0.198
25.24958009819533;0.19825
25.256644015950915;0.1985
25.255307938462515;0.19875
25.262371865720503;0.199
25.26273579771526;0.19925
25.27639973443715;0.1995
25.278463675876562;0.19975
25.288827622023874;0.2
25.290891572869455;0.20025
25.29625552840369;0.2005
25.293219488616955;0.20075
25.298583453499628;0.201
25.298947423042094;0.20125
25.294311397234733;0.2015
25.29637537606792;0.20175
25.291739359532045;0.202
25.29040334761748;0.20225
25.282467340314614;0.2025
25.28453133761383;0.20275
25.27819533950551;0.203
25.281859345980035;0.20325
25.27562335702779;0.2035
25.277587372639168;0.20375
25.272951392804544;0.204
25.271715417514308;0.20425
25.26867944675885;0.2045
25.270743480528548;0.20475
25.264407518813798;0.205
25.26647156160498;0.20525
25.271835608892495;0.2055
25.275499660666718;0.20575
25.27086371691804;0.206
25.27962777763686;0.20625
25.274991842813563;0.2065
25.28035591243854;0.20675
25.29401998650218;0.207
25.296084064994883;0.20725
25.331448147907032;0.2075
25.33341223522902;0.20775
25.368776326951245;0.208
25.370840423064102;0.20825
25.404504523557986;0.2085
25.40826862842328;0.20875
25.450232737650396;0.209
25.448996851229715;0.20925
25.49936096915165;0.2095
25.503025091406577;0.20975
25.585089217984915;0.21
25.585453348877046;0.21025
25.65241748407338;0.2105
25.661181623564307;0.21075
25.611545767340225;0.211
25.603509915391545;0.21125
25.41557406770866;0.2115
25.475938224281975;0.21175
24.914602385101887;0.212
25.1099665501588;0.21225
24.12033071944311;0.2125
24.509094892945235;0.21275
23.189459070655566;0.213
23.618123252564512;0.21325
24.823487438662482;0.2135
24.87555162893987;0.21375
25.709215823387087;0.214
25.814580021994548;0.21425
25.67994422475265;0.2145
25.6603084316518;0.21475
24.7656726426824;0.215
24.732736857834876;0.21525
24.486401077099625;0.2155
24.493465300467054;0.21575
24.880429527927582;0.216
24.904193759471614;0.21625
25.40285799508956;0.2165
25.419922234771832;0.21675
25.665286478508847;0.217
25.67225072629101;0.21725
25.73431497810874;0.2175
25.74297923395244;0.21775
25.720043493812543;0.218
25.717107757679447;0.21825
25.660772025543572;0.2185
25.659436297395334;0.21875
25.606500573225155;0.219
25.60516485302344;0.21925
25.570529136780618;0.2195
25.5708934244871;0.21975
25.539657716133306;0.22
25.538322011709653;0.22025
25.50198631120656;0.2205
25.500750614614454;0.22075
25.476114921923752;0.221
25.476479233124874;0.22125
25.460143548208233;0.2215
25.458807867164268;0.22175
25.432572189983386;0.222
25.431236516656025;0.22225
25.401600847172592;0.2225
25.40196518152353;0.22275
25.39402951969925;0.223
25.392693861690177;0.22325
25.399758207486745;0.2235
25.400122557079374;0.22375
25.4070869104585;0.224
25.407451267614537;0.22425
25.41951562853792;0.2245
25.41817999321908;0.22475
25.438544361648447;0.225
25.438908733816447;0.22525
25.475973109713504;0.2255
25.478037489330063;0.22575
25.53000187265655;0.226
25.53376625968339;0.22625
25.64073065040102;0.2265
25.646095044799875;0.22675
25.746459442870385;0.227
25.751823844602992;0.22725
25.872188249988117;0.2275
25.87425265901621;0.22775
25.507917071677696;0.228
25.469981487963018;0.22825
24.35864590786261;0.2285
24.320710331366904;0.22875
23.779374758466346;0.229
23.794739189151375;0.22925
24.351803623412422;0.2295
24.385468061239933;0.22975
25.10253250262435;0.23
25.126196947556107;0.23025
25.59156139602565;0.2305
25.605325848023423;0.23075
25.86229030353986;0.231
25.867654762565415;0.23125
25.89471922509052;0.2315
25.895083691105626;0.23175
26.10214816060118;0.232
26.120812633567624;0.23225
27.1761771099954;0.2325
27.23654158987496;0.23275
23.766906073196754;0.233
23.843970559951217;0.23325
21.66933505012881;0.2335
23.17129954371998;0.23375
24.603364040715164;0.234
24.647028541104824;0.23425
24.237393044879408;0.2345
24.439457552029364;0.23475
25.284822062545146;0.235
25.316886576417204;0.23525
25.91225109363599;0.2355
25.929215614191968;0.23575
26.134580138075574;0.236
26.143344665277276;0.23625
26.11870919578752;0.2365
26.117373729596775;0.23675
26.012738266695482;0.237
26.008102807074103;0.23725
25.868467350723098;0.2375
25.86213189763292;0.23775
25.74419644779403;0.238
25.74126100119689;0.23825
25.676625557831958;0.2385
25.675290117689688;0.23875
25.63735468076055;0.239
25.634319247035;0.23925
25.586383816503496;0.2395
25.58344838915651;0.23975
25.493812964984496;0.24
25.48247754397793;0.24025
24.75284212612726;0.2405
24.614906711422957;0.24075
24.760271299855493;0.241
24.772235891415328;0.24125
25.06430048609293;0.2415
25.074665083878767;0.24175
25.2433296847633;0.242
25.248694288737003;0.24225
25.339058895790348;0.2425
25.344423505913806;0.24275
25.429788119097832;0.243
25.435152735332917;0.24325
25.495517354609515;0.2435
25.499281976918105;0.24375
25.526246602249167;0.244
25.525011230593158;0.24425
25.531975861940563;0.2445
25.537340496281853;0.24475
25.532705133607504;0.245
25.53476977390799;0.24525
25.54183441717379;0.2455
25.54219906339537;0.24575
25.53416371256322;0.246
25.534528364667818;0.24625
25.52159301969963;0.2465
25.523657677649144;0.24675
25.50402233850684;0.247
25.504387002263197;0.24725
25.488051668908692;0.2475
25.48841633843381;0.24775
25.47208101082903;0.248
25.470845686084843;0.24825
25.45281036419172;0.2485
25.454875045140156;0.24875
25.438539728920627;0.249
25.437304415523624;0.24925
25.42426910493963;0.2495
25.42463379715913;0.24975
25.38999849217261;0.25
25.462063189970557;0.25025
24.175727890543463;0.2505
22.796092593881816;0.25075
23.699857299976106;0.251
25.320222008816824;0.25125
25.35388672039445;0.2515
25.737551434699487;0.25175
25.74791615172242;0.252
25.816680871453745;0.25225
25.795345593883955;0.2525
25.694010319003535;0.25275
25.689375046802994;0.253
25.579739777272817;0.25325
25.576804510403502;0.2535
25.48886924618554;0.25375
25.485833984609435;0.254
25.422898725665682;0.25425
25.421563469344775;0.2545
25.386928215637216;0.25475
25.387292964533504;0.255
25.369357716024137;0.25525
25.371422470099617;0.2555
25.365087226750447;0.25575
25.36715198596712;0.256
25.372516747740146;0.25625
25.37118151206003;0.2565
25.378246278917267;0.25675
25.378611048302364;0.257
25.38727582020583;0.25725
25.387640594618166;0.2575
25.394705371529877;0.25775
25.395070150931474;0.258
25.385434932813467;0.25825
25.38409971716635;0.2585
25.37616450398064;0.25875
25.37812929324685;0.259
25.371894084955482;0.25925
25.37385887909705;0.2595
25.379223675662068;0.25975
25.379588474641043;0.26
25.376653276024484;0.26025
25.382018079802915;0.2605
25.39068288596684;0.26075
25.391047694506774;0.261
25.396412505413235;0.26125
25.396777318676737;0.2615
25.402142134287793;0.26175
25.39750695223692;0.262
25.392871772514646;0.26225
25.396636595111474;0.2625
25.390301420017934;0.26275
25.392366247224537;0.263
25.386031076721803;0.26325
25.388095908500258;0.2635
25.38346074255042;0.26375
25.38382557886281;0.264
25.385790417427955;0.26425
25.382855258236372;0.2645
25.389920101278587;0.26475
25.383584946545128;0.265
25.37724979402651;0.26525
25.381014643713268;0.2655
25.374679495595924;0.26575
25.378344349665003;0.266
25.37370920591104;0.26625
25.374074064324557;0.2665
25.377838924896086;0.26675
25.37480378761615;0.267
25.378568652475284;0.26725
25.377233519464017;0.2675
25.38089838857289;0.26775
25.38126325979242;0.268
25.376628133113147;0.26825
25.381993008525605;0.2685
25.374057886020324;0.26875
25.37612276558784;0.269
25.368087647218697;0.26925
25.36685253090342;0.2695
25.368817416632545;0.26975
25.367582304396617;0.27
25.37124719418617;0.27025
25.36991208599174;0.2705
25.37697697980387;0.27075
25.3756418756131;0.271
25.381006773409965;0.27125
25.37977167318501;0.2715
25.386736574928786;0.27175
25.38710147863182;0.272
25.390866384284664;0.27225
25.391231291877855;0.2725
25.396596201401945;0.27275
25.390261112847476;0.273
25.395626026204994;0.27325
25.394290941465044;0.2735
25.388055858618173;0.27375
25.388420777654936;0.274
25.37708569856587;0.27425
25.377450621341527;0.2745
25.372815545972465;0.27475
25.37318047244923;0.275
25.370245400762364;0.27525
25.36891033090243;0.2755
25.37597526285998;0.27575
25.381340196625562;0.276
25.375005132189735;0.27625
25.373670069543042;0.2765
25.377435008676056;0.27675
25.376099949579316;0.277
25.38316489224339;0.27725
25.383529836658827;0.2775
25.37889478281619;0.27775
25.375859730706033;0.278
25.38292468031892;0.27825
25.38328963164541;0.2785
25.38865458467606;0.27875
25.390719539401434;0.279
25.394384495812094;0.27925
25.396449453898605;0.2795
25.39341441365152;0.27975
25.395479375061413;0.28
25.400844338118844;0.28025
25.39950930281438;0.2805
25.403274269138585;0.28075
25.401939237082033;0.281
25.410604206635274;0.28125
25.409369177788896;0.2815
25.41473415053345;0.28175
25.41339912485952;0.282
25.41706410075767;0.28225
25.41912907821847;0.2825
25.41619405723249;0.28275
25.42155903779031;0.283
25.418524019882486;0.28325
25.418889003499604;0.2835
25.422653988632245;0.28375
25.423018975270967;0.284
25.41998396340635;0.28425
25.423748953028984;0.2845
25.427413944129427;0.28475
25.427778936698267;0.285
25.42484393072608;0.28525
25.425208926203442;0.2855
25.430573923120935;0.28575
25.427538921469143;0.286
25.43130392123864;0.28625
25.428268922420017;0.2865
25.432033925003843;0.28675
25.43069892898071;0.287
25.427763934341208;0.28725
25.428128941075908;0.2875
25.425093949175398;0.28775
25.427158958630272;0.288
25.422523969431104;0.28825
25.426188981568494;0.2885
25.423253995033026;0.28875
25.423619009815283;0.289
25.428984025905862;0.28925
25.42434904329534;0.2895
25.42971406197433;0.28975
25.430079081933403;0.29
25.44374410316316;0.29025
25.444109125654187;0.2905
25.456174149397086;0.29075
25.456539174382453;0.291
25.460204200600874;0.29125
25.458969228042946;0.2915
25.450934256699277;0.29175
25.451299286560445;0.292
25.42506431761706;0.29225
25.42372934985972;0.2925
25.389094383279023;0.29275
25.389459417865563;0.293
25.37152445360995;0.29325
25.370189490502785;0.2935
25.387254528534655;0.29375
25.38421956769618;0.294
25.396284607977957;0.29425
25.396649649370588;0.2945
25.407014691864685;0.29475
25.407379735450846;0.295
25.412744780119677;0.29525
25.411409825861792;0.2955
25.418474872667794;0.29575
25.415539920528293;0.296
25.42250496943389;0.29625
25.422870019375214;0.2965
25.41993507034285;0.29675
25.422000122327432;0.297
25.42736517531956;0.29725
25.42603022930985;0.2975
25.42969528428891;0.29775
25.426760340247366;0.298
25.43212539717582;0.29825
25.429190455064894;0.2985
25.42785551390521;0.29875
25.429920573687372;0.299
25.433585634402004;0.29925
25.43225069603973;0.2995
25.427615758591163;0.29975
25.42968082204692;0.3
25.433345886397632;0.30025
25.430410951633906;0.3005
25.424076017746376;0.30075
25.427841084725664;0.301
25.421506152562387;0.30125
25.423571221247173;0.3015
25.420536290770645;0.30175
25.420901361123434;0.302
25.426266432296163;0.30225
25.42333150427946;0.3025
25.42869657706395;0.30275
25.425761650640265;0.303
25.432726724999036;0.30325
25.429791800130882;0.3035
25.435156876026447;0.30375
25.43222195267636;0.304
25.435887030071246;0.30425
25.43295210820175;0.3045
25.43661718705849;0.30475
25.433682266632115;0.305
25.44404734691325;0.30525
25.44601242789254;0.3055
25.453077509560618;0.30575
25.456742591908117;0.306
25.453807674925685;0.30625
25.454172758603953;0.3065
25.444537842933556;0.30675
25.44490292790515;0.307
25.43526801350936;0.30725
25.43733309973684;0.3075
25.430998186578226;0.30775
25.429663274024165;0.308
25.4334283620653;0.30825
25.43209345069227;0.3085
25.43745853989573;0.30875
25.437823629666322;0.309
25.433188719994693;0.30925
25.43525381087149;0.3095
25.440618902287373;0.30975
25.439283994232966;0.31
25.446349086698945;0.31025
25.446714179675947;0.3105
25.448679273154625;0.31075
25.447444367125634;0.311
25.45440946157963;0.31125
25.45477455650726;0.3115
25.461839651899183;0.31175
25.463904747746053;0.312
25.47256984403852;0.31225
25.472934940767257;0.3125
25.478300037922907;0.31275
25.476965135496133;0.313
25.480730233477598;0.31325
25.482695331857954;0.3135
25.479760430627866;0.31375
25.481825529778;0.314
25.493790629299006;0.31425
25.49585572918156;0.3145
25.50952082941632;0.31475
25.509885929993953;0.315
25.52025103090512;0.31525
25.520616132140482;0.3155
25.529381233690717;0.31575
25.52474633554649;0.316
25.495111437698462;0.31625
25.49547654013731;0.3165
25.455841642853702;0.31675
25.456206745838305;0.317
25.428171849081796;0.31725
25.42693695257484;0.3175
25.398902056308117;0.31775
25.399267160272295;0.318
25.38963226445805;0.31825
25.394997368856057;0.3185
25.408762473456996;0.31875
25.41072757825154;0.319
25.419492683230366;0.31925
25.418157788384146;0.3195
25.428522893703576;0.31975
25.42888799917932;0.32
25.445953104802065;0.32025
25.446318210562495;0.3205
25.458283316451286;0.32075
25.458648422459124;0.321
25.470713528576688;0.32125
25.47277863479467;0.3215
25.46814374110375;0.32175
25.470108847494615;0.322
25.46217395395795;0.32225
25.460839060484453;0.3225
25.454604167064797;0.32275
25.454969273689677;0.323
25.445334380349788;0.32325
25.448999487035817;0.3235
25.442664593738446;0.32375
25.444729700448384;0.324
25.44179480715631;0.32425
25.44215991385293;0.3245
25.43752502052893;0.32475
25.439490127175006;0.325
25.434855233781857;0.32525
25.435220340340177;0.3255
25.44058544684066;0.32575
25.43765055327402;0.326
25.443015659630934;0.32625
25.440080765902124;0.3265
25.450445872078273;0.32675
25.449110978150095;0.327
25.457776084108282;0.32725
25.459841189943543;0.3275
25.476906295646582;0.32775
25.477271401208107;0.328
25.49093650661882;0.32825
25.48800161186942;0.3285
25.498366716950624;0.32875
25.498731821853138;0.329
25.50909692656767;0.32925
25.507762031084926;0.3295
25.514827135395617;0.32975
25.51349223949046;0.33
25.520557343360164;0.33025
25.515922446995443;0.3305
25.522887550387;0.33075
25.51995265352556;0.331
25.52701775640184;0.33125
25.51898285900655;0.3315
25.522747961330406;0.33175
25.52141306336413;0.332
25.513478165098437;0.33225
25.513843266524045;0.3325
25.502508367631673;0.33275
25.502873468412048;0.333
25.49323856885589;0.33325
25.495303668953916;0.3335
25.490668768696846;0.33375
25.497633868075418;0.334
25.491398967080343;0.33425
25.495064065702355;0.3345
25.490429163932177;0.33475
25.49249426176053;0.335
25.489459359178156;0.33525
25.489824456175775;0.3355
25.49518955274411;0.33575
25.493954648873906;0.336
25.489319744555882;0.33625
25.48968483978078;0.3365
25.49334993453932;0.33675
25.493715028822248;0.337
25.49078012262029;0.33725
25.492745215924185;0.3375
25.48981030872467;0.33775
25.491875401012475;0.338
25.488840492778348;0.33825
25.490905584013017;0.3385
25.49797067470723;0.33875
25.496635764851725;0.339
25.502000854437238;0.33925
25.50066594345451;0.3395
25.504431031894292;0.33975
25.506396119747322;0.34
25.500161207004343;0.34025
25.505526293656104;0.3405
25.502491379693343;0.34075
25.50455646510682;0.341
25.499921549887265;0.34125
25.501986634025442;0.3415
25.507351717512094;0.34175
25.504316800337964;0.342
25.50808188249382;0.34225
25.50844696397039;0.3425
25.505412044758444;0.34275
25.50577712484873;0.343
25.511142204232;0.34325
25.509907282899018;0.3435
25.515272360840527;0.34375
25.515637438047293;0.344
25.521002514510062;0.34425
25.5179675902196;0.3445
25.521732665166674;0.34475
25.52039773934203;0.345
25.52406281273643;0.34525
25.522827885340643;0.3455
25.514792957145428;0.34575
25.513558028141546;0.346
25.50892309831976;0.34625
25.50928816767084;0.3465
25.499653236185548;0.34675
25.503318303854652;0.347
25.495383370668918;0.34725
25.497348436619113;0.3475
25.492713501696006;0.34775
25.49647856589037;0.348
25.490143629192975;0.34825
25.49050869159459;0.3485
25.494173753085985;0.34875
25.49293881365794;0.349
25.491603873301226;0.34925
25.491968932006618;0.3495
25.49903398976489;0.34975
25.495999046566816;0.35
25.501364102403187;0.35025
25.500129157264762;0.3505
25.507094211142327;0.35075
25.505859264026665;0.351
25.512824315908556;0.35125
25.509889366778783;0.3515
25.516954416628124;0.35175
25.51731946544737;0.352
25.524284513227293;0.35225
25.523049559958686;0.3525
25.530014605632335;0.35275
25.530379650239023;0.353
25.52574469376954;0.35325
25.524509736214675;0.3535
25.508174777565213;0.35375
25.508539817811943;0.354
25.490604856945666;0.35425
25.490969894957164;0.3545
25.472934931837234;0.35475
25.473299967576665;0.355
25.45706500216626;0.35525
25.459030035596804;0.3555
25.452795067859096;0.35575
25.454760098943943;0.356
25.458525128842126;0.35625
25.458890157544452;0.3565
25.46425518504172;0.35675
25.464620211324732;0.357
25.484985236384286;0.35725
25.483650260211185;0.3575
25.494015282796234;0.35775
25.49438030413023;0.358
25.498045324203986;0.35825
25.498410343008302;0.3585
25.495475360533987;0.35875
25.494140376771842;0.359
25.499505391712688;0.35925
25.49987040534732;0.3595
25.530235417666553;0.35975
25.5356004286612;0.36
25.62436543832207;0.36025
25.628030446639976;0.3605
25.728395453605724;0.36075
25.733760459210146;0.361
25.85582546344404;0.36125
25.862790466298225;0.3615
26.046555467763522;0.36175
26.12522046783075;0.362
26.025585466490718;0.36225
26.007650463734258;0.3625
25.206315459552176;0.36275
25.164980453935303;0.363
24.785345446874455;0.36325
24.949110438360464;0.3635
25.956075428384146;0.36375
26.399840416936325;0.364
24.243505404007824;0.36425
24.098870389589482;0.3645
23.44093537367211;0.36475
24.157900356246543;0.365
25.154965337303615;0.36525
25.15863031683415;0.3655
25.355695294828976;0.36575
25.36436027127893;0.366
25.58142524617484;0.36625
25.588490219507545;0.3665
25.64545519126787;0.36675
25.649220161446664;0.367
25.794585130034747;0.36725
25.801550097022965;0.3675
25.893615062402148;0.36775
25.897280026163145;0.368
25.972644988296796;0.36825
25.97470994879393;0.3685
26.035074907645395;0.36875
26.04873986484203;0.369
25.93580482037468;0.36925
25.916169774234188;0.3695
25.369834726411405;0.36975
25.346899676897163;0.37
25.09396462568232;0.37025
25.112629572757722;0.3705
25.32299451811421;0.37075
25.335059461742645;0.371
25.575424403633864;0.37125
25.582389343778726;0.3715
25.70615428216808;0.37175
25.708119218792774;0.372
25.748484153643677;0.37225
25.745549086711623;0.3725
25.712614017987487;0.37275
25.70957894746211;0.373
25.65834387512636;0.37325
25.657008800971084;0.3735
25.62907372498715;0.37375
25.62773864716542;0.374
25.611403567496744;0.37425
25.61176848597199;0.3745
25.603833402582016;0.37475
25.604198317317696;0.375
25.591263230169883;0.37525
25.59162814112945;0.3755
25.580293050187258;0.37575
25.58065795733418;0.376
25.574322862561075;0.37625
25.576387765858815;0.3765
25.58345266721827;0.37675
25.58381756663032;0.377
25.577482464085822;0.37725
25.581147359575656;0.3775
25.576512253090698;0.37775
25.580277144621814;0.378
25.587242034159885;0.37825
25.584306921695784;0.3785
25.579671807220393;0.37875
25.581736690724583;0.379
25.573701572199237;0.37925
25.574066451635233;0.3795
25.566131329023456;0.37975
25.56819620435478;0.38
25.565161077620097;0.38025
25.56722594881028;0.3805
25.570890817916215;0.38075
25.572955684928793;0.381
25.568320549838898;0.38125
25.571985412637417;0.3815
25.567350273315235;0.38175
25.57111513186324;0.382
25.56147998827233;0.38225
25.563444842533386;0.3825
25.558809694637304;0.38275
25.559174544574976;0.383
25.552939392337297;0.38325
25.55490423791516;0.3835
25.551969081299458;0.38375
25.554033922481086;0.384
25.550998761450952;0.38425
25.55306359819994;0.3845
25.550128432718953;0.38475
25.553793264998898;0.385
25.550858095030666;0.38525
25.554522922805166;0.3855
25.548187748313293;0.38575
25.548552571545958;0.386
25.552317392494064;0.38625
25.54768221114851;0.3865
25.551347027500206;0.38675
25.548411841540066;0.387
25.55877665325899;0.38725
25.55574146264789;0.3875
25.562806269697678;0.38775
25.561471074399254;0.388
25.568535876743542;0.38825
25.565600676721456;0.3885
25.572565474323895;0.38875
25.571330269541786;0.389
25.576695062366046;0.38925
25.575359852787585;0.3895
25.56902464079732;0.38975
25.567789426386174;0.39
25.57145420954506;0.39025
25.573518990264905;0.3905
25.56718376853663;0.39075
25.567548544351155;0.391
25.572913317699395;0.39125
25.569978088572288;0.3915
25.576942856960745;0.39175
25.577307622855702;0.392
25.58107238624809;0.39225
25.57973714712882;0.3925
25.575101905488832;0.39275
25.575466661319055;0.393
25.56083141461042;0.39325
25.561196165353852;0.3935
25.54986091354029;0.39375
25.551925659160663;0.394
25.535590402205912;0.39425
25.534355142666968;0.3945
25.52131988053476;0.39475
25.521684615800233;0.395
25.53204934845433;0.39525
25.534114078487978;0.3955
25.551178805892125;0.39575
25.551543530657714;0.396
25.570208252775675;0.39625
25.57227297223696;0.3965
25.58923768903251;0.39675
25.589602403153275;0.397
25.596667114590193;0.39725
25.595331823334213;0.3975
25.589096529376285;0.39775
25.591061232707354;0.398
25.569825933318377;0.39825
25.568490631200287;0.3985
25.540555326344055;0.39875
25.542520018740625;0.399
25.532884708380948;0.39925
25.53324939525598;0.3995
25.54531407935668;0.39975
25.543978760673998;0.4
25.557743439198887;0.40025
25.556408114922323;0.4005
25.561772787835245;0.40075
25.560437457928625;0.401
25.567502125193418;0.40125
25.56456678962059;0.4015
25.5699314512011;0.40175
25.568596109925917;0.402
25.567260765786;0.40225
25.569325418772316;0.4025
25.564690068875834;0.40275
25.56505471608752;0.403
25.57041936039834;0.40325
25.569084001799272;0.4035
25.572848640281276;0.40375
25.56981327583533;0.404
25.5751779084524;0.40425
25.572242538123465;0.4045
25.5759071648395;0.40475
25.57297178859148;0.405
25.578336409370376;0.40525
25.575401027167167;0.4055
25.580765641972842;0.40575
25.577730253778363;0.406
25.583094862574725;0.40625
25.581859468352896;0.4065
25.587224071103865;0.40675
25.585888670818616;0.407
25.587953267488132;0.40725
25.5883178611034;0.4075
25.583682451655395;0.40775
25.58904703913512;0.408
25.58441162353355;0.40825
25.58977620484168;0.4085
25.5867407830505;0.40875
25.588805358151;0.409
25.59586993013417;0.40925
25.594534498991006;0.4095
25.5981990647125;0.40975
25.600263627289642;0.41
25.595628186713437;0.41025
25.600992742974878;0.4105
25.596357296064962;0.41075
25.596721845974685;0.411
25.60378639269505;0.41125
25.600750936217054;0.4115
25.604515476531702;0.41175
25.603180013629995;0.412
25.59854454750294;0.41225
25.60220907814154;0.4125
25.5942736055368;0.41275
25.597938129679722;0.413
25.590002650561317;0.41325
25.595367168172594;0.4135
25.59073168250456;0.41375
25.589396193548232;0.414
25.578160701294617;0.41425
25.578525205734728;0.4145
25.57548970685957;0.41475
25.579254204660174;0.415
25.574618699127537;0.41525
25.576583190252695;0.4155
25.58534767802665;0.41575
25.58731216244043;0.416
25.59767664348505;0.41625
25.596441121151525;0.4165
25.585105595430882;0.41675
25.58377006631415;0.417
25.569134533792337;0.41725
25.569498997856474;0.4175
25.554863458497593;0.41775
25.556927915706716;0.418
25.560592369474865;0.41825
25.557656819793078;0.4185
25.563021266652374;0.41875
25.56338571004379;0.419
25.582050149958356;0.41925
25.584114586387106;0.4195
25.591179019321068;0.41975
25.59154344875128;0.42
25.586907874668775;0.42025
25.587272297064594;0.4205
25.592636715929768;0.42075
25.58960113125534;0.421
25.594965543032345;0.42125
25.595329951251827;0.4215
25.60409435590483;0.42175
25.60605875698239;0.422
25.61642315447555;0.42225
25.61518754837536;0.4225
25.623851938672864;0.42275
25.6209163253591;0.423
25.62458070842513;0.42325
25.621645087861985;0.4235
25.617009463660732;0.42375
25.617373835812412;0.424
25.609338204308077;0.42425
25.61140256913878;0.4245
25.60676693029557;0.42475
25.610431287769508;0.425
25.605795641551648;0.42525
25.611159991633045;0.4255
25.604924338004754;0.42575
25.60858868065784;0.426
25.603953019583354;0.42625
25.607617354772366;0.4265
25.60298168621593;0.42675
25.60334601390511;0.427
25.600410337830972;0.42725
25.599074657984577;0.4275
25.604438974356995;0.42775
25.603203286939287;0.428
25.60686759572253;0.42825
25.60553190069778;0.4285
25.610896201856114;0.42875
25.606260499188604;0.429
25.610024792686314;0.42925
25.608689082340327;0.4295
25.612353368141708;0.42975
25.61271765008154;0.43
25.621481928150892;0.43025
25.62184620234084;0.4305
25.628810472642463;0.43075
25.627574739046846;0.431
25.63123900154506;0.43125
25.629903260128195;0.4315
25.621967514787325;0.43175
25.62233176551354;0.432
25.61599601229791;0.43225
25.618060255131535;0.4325
25.610124494005497;0.43275
25.612088728910884;0.433
25.607452959838778;0.43325
25.606217186780274;0.4335
25.61158140972646;0.43375
25.610245628668423;0.434
25.615609843597262;0.43425
25.61427405450407;0.4345
25.611338261379938;0.43475
25.61500246421596;0.435
25.62206666300323;0.43525
25.620730857732855;0.4355
25.624495048395932;0.43575
25.621459234983547;0.436
25.62682341748682;0.43625
25.622187595896833;0.4365
25.627551770204708;0.43675
25.62631594040153;0.437
25.629980106478413;0.43725
25.630344268426462;0.4375
25.634008426236786;0.43775
25.63277257990049;0.438
25.63813672940868;0.43825
25.635100874752467;0.4385
25.63886501592297;0.43875
25.63752915291129;0.439
25.641193285708543;0.43925
25.638257414305848;0.4395
25.641921538694316;0.43975
25.64068565886506;0.44
25.6360497748092;0.44025
25.64141388651786;0.4405
25.636777993982154;0.44075
25.6371420971932;0.441
25.630806196142114;0.44125
25.63117029082003;0.4415
25.636534381218073;0.44175
25.63519846732736;0.442
25.642262549139012;0.44225
25.642626626644166;0.4425
25.651290699833943;0.44275
25.651654768699473;0.443
25.665418833231886;0.44325
25.665782893422318;0.4435
25.68274694926189;0.44375
25.681511000741743;0.444
25.688475047853007;0.44425
25.68723909058682;0.4445
25.69260312893432;0.44475
25.692967162886635;0.445
25.68833119243491;0.44525
25.691995217570284;0.4455
25.685659238283897;0.44575
25.686023254566884;0.446
25.676387266410398;0.44625
25.678451273805578;0.4465
25.66881527674356;0.44675
25.669179275215505;0.447
25.67624326921255;0.44725
25.67320725872584;0.4475
25.678571243746532;0.44775
25.67393522426577;0.448
25.675999200274706;0.44825
25.678063171764496;0.4485
25.670027138726283;0.44875
25.672091101151235;0.449
25.667455059030495;0.44925
25.669519012355224;0.4495
25.66318296111658;0.44975
25.66524690530572;0.45
25.672210844913806;0.45025
25.670974779931992;0.4505
25.677938710351444;0.45075
25.676702636163323;0.451
25.683666557358798;0.45125
25.685730473929027;0.4515
25.691094385865174;0.45175
25.691458293158416;0.452
25.686822195799913;0.45225
25.68888609378083;0.4525
25.670849987092353;0.45275
25.669613875725634;0.453
25.65327775967186;0.45325
25.650341638922196;0.4535
25.630705513467817;0.45375
25.631069383299902;0.454
25.621433248409627;0.45425
25.623397108788165;0.4545
25.602160964426698;0.45475
25.600824815316408;0.455
25.577888661448473;0.45525
25.578252502814074;0.4555
25.561916339404398;0.45575
25.56228017121062;0.456
25.577643998223937;0.45625
25.57800782043553;0.4565
25.60007163783658;0.45675
25.60203545041829;0.457
25.625799258171835;0.45725
25.626163061088413;0.4575
25.64652685915921;0.45775
25.64689065237543;0.458
25.670554440728253;0.45825
25.669218224208883;0.4585
25.686282002808507;0.45875
25.68664577651834;0.459
25.69370954532956;0.45925
25.69407330923338;0.4595
25.692737068220985;0.45975
25.693100822283593;0.46
25.696764571412402;0.46025
25.693828315598605;0.4605
25.697492054833425;0.46075
25.692855789108048;0.461
25.696619518413705;0.46125
25.69198324274157;0.4615
25.70234696208289;0.46175
25.702710676428847;0.462
25.77467438577066;0.46225
25.778438090099545;0.4625
25.853801789406713;0.46275
25.85746548368338;0.463
25.951129172920766;0.46325
25.956492857110074;0.4635
26.088556536242532;0.46375
26.09562021030936;0.464
26.200983879301774;0.46425
26.154647543210995;0.4645
25.505011202028246;0.46475
25.470374855744755;0.465
24.802438504351738;0.46525
24.81940214784042;0.4655
25.466465786202036;0.46575
25.56682941942781;0.466
26.40219304750897;0.46625
25.462556670436747;0.4665
23.172920288202373;0.46675
23.663283900797072;0.467
25.458647508212092;0.46725
25.512311110438652;0.4675
26.007674707467995;0.46775
26.021438299291358;0.468
26.151801885899978;0.46825
26.147165467285095;0.4685
26.079129043437945;0.46875
26.076192614349768;0.469
25.998256180011815;0.46925
25.996919740415322;0.4695
25.927283295551533;0.46975
25.92434684541169;0.47
25.85631038998705;0.47025
25.85507392926885;0.4705
25.82703746324835;0.47075
25.82740099191679;0.471
25.821164515265423;0.47125
25.823128033285506;0.4715
25.826891545968284;0.47175
25.825555053305017;0.472
25.834218555286963;0.47225
25.83458205190537;0.4725
25.8549455431515;0.47275
25.855309029016617;0.473
25.915672509491976;0.47325
25.919435984568835;0.4735
26.021399454238463;0.47375
26.135162918492114;0.474
25.82052637732106;0.47425
25.757489830716565;0.4745
25.359553278669893;0.47475
25.331616721172317;0.475
25.418580158215097;0.47525
25.430643589789508;0.4755
25.61100701588683;0.47575
25.61467043649832;0.476
25.753433851615252;0.47625
25.760397261228917;0.4765
25.885760665330576;0.47675
25.88952406391151;0.477
25.96488745696299;0.47725
25.96685084447631;0.4775
26.00721422644274;0.47775
26.022577602853556;0.478
26.004640973700056;0.47825
26.001704338973507;0.4785
25.645367698665208;0.47875
25.61743105276643;0.479
25.09779440126847;0.47925
25.08815774416262;0.4795
25.200121081440155;0.47975
25.212184413092377;0.48
25.490847739110567;0.48025
25.50121105948603;0.4805
25.718274374210054;0.48075
25.723637683273928;0.481
25.82900098666896;0.48125
25.831064284386432;0.4815
25.854727576417655;0.48175
25.85679086275393;0.482
25.84545414338654;0.48225
25.8458174183068;0.4825
25.826180687506017;0.48275
25.824843950975485;0.483
25.79020720870651;0.48325
25.7872704606904;0.4835
25.752633706918466;0.48375
25.752996947382012;0.484
25.728360182072347;0.48425
25.727023410980784;0.4845
25.77078663409864;0.48475
25.76774985141722;0.485
25.69481306292784;0.48525
25.696876268621818;0.4855
25.712239468490463;0.48575
25.7142026625251;0.486
25.73626585071705;0.48625
25.736629033057625;0.4865
25.768692209538145;0.48675
25.770655380149947;0.487
25.782718544884332;0.48725
25.779781703732645;0.4875
25.768444856686198;0.48775
25.76880800373633;0.488
25.73917114487436;0.48825
25.737834280091615;0.4885
25.693197409379433;0.48875
25.691960532729134;0.489
25.657323650132067;0.48925
25.654286761579552;0.4895
25.64804986706293;0.48975
25.650012966573538;0.49
25.663776060102705;0.49025
25.662439147641777;0.4905
25.677802229182095;0.49075
25.678165304714994;0.491
25.686828374231816;0.49125
25.687191437723907;0.4915
25.697554495182608;0.49175
25.69791754659927;0.492
25.701680591965236;0.49225
25.70204363127185;0.4925
25.707406664510465;0.49275
25.702769691672426;0.493
25.70973271274909;0.49325
25.710095727731808;0.4935
25.70385873661193;0.49375
25.705821739380813;0.494
25.702884736029816;0.49425
25.70494772655029;0.4945
25.696910710933594;0.49475
25.69727368917109;0.495
25.702636661254136;0.49525
25.701399627174094;0.4955
25.705062586922327;0.49575
25.700425540490198;0.496
25.705788487869075;0.49625
25.701151429050324;0.4965
25.704814364025303;0.49675
25.703577292785393;0.497
25.695540215321955;0.49725
25.69760313162637;0.4975
25.68966604169;0.49775
25.693328945504216;0.498
25.688691843060408;0.49825
25.690754734349934;0.4985
25.697717619364184;0.49875
25.698080498094523;0.499
25.708443370532343;0.49925
25.71050623666902;0.4995
25.71916909649593;0.49975
25.71623195000446;0.5
25.739894797185993;0.50025
25.826957638031914;0.5005
25.74062047253361;0.50075
25.76098330068247;0.501
25.763046122469873;0.50125
25.75840893788722;0.5015
25.7604717469259;0.50175
25.7524345495773;0.502
25.752797345832814;0.50225
25.69656013568384;0.5025
25.693522919121776;0.50275
25.61728569613801;0.503
25.61264846672394;0.50325
25.528011230870977;0.5035
25.51837398857051;0.50375
25.530336739813947;0.504
25.530699484592684;0.50425
25.584462222898132;0.5045
25.58812495472169;0.50475
25.65848768005477;0.505
25.66215039888877;0.50525
25.712513111215113;0.5055
25.716275817025195;0.50575
25.749938516310433;0.506
25.750301209062243;0.50625
25.76066389527203;0.5065
25.762726574931218;0.50675
25.754689248031212;0.507
25.756751914563434;0.50725
25.743814574519305;0.5075
25.744177227890244;0.50775
25.734539874667668;0.508
25.733202514843;0.50825
25.73856514840766;0.5085
25.735627775353077;0.50875
25.740990395670668;0.509
25.739653009351873;0.50925
25.748315616388112;0.5095
25.74867821677081;0.50975
25.757440810491406;0.51
25.756103397541327;0.51025
25.761465977912;0.5105
25.761828551594864;0.51075
25.76889111858136;0.511
25.767553678862907;0.51125
25.771216232430962;0.5115
25.766578779276948;0.51175
25.771941319392315;0.512
25.7707038527685;0.51225
25.76606637939694;0.5125
25.766428899269084;0.51275
25.770091412376377;0.513
25.76715391871026;0.51325
25.76081641826219;0.5135
25.762878911023606;0.51375
25.758241396985955;0.514
25.760203876140693;0.51425
25.75556634847927;0.5145
25.759328813993143;0.51475
25.75629127267376;0.515
25.75835372451258;0.51525
25.755416169501054;0.5155
25.75907860763065;0.51575
25.754441038892818;0.516
25.759803463279024;0.51625
25.76516588078072;0.5165
25.76222829138938;0.51675
25.765890695096466;0.517
25.766253091893436;0.51725
25.76831548177176;0.5175
25.770277864722907;0.51775
25.765640240738342;0.518
25.769402609809536;0.51825
25.766364971927963;0.5185
25.766727327085093;0.51875
25.763789675272402;0.519
25.76245201648136;0.51925
25.769514350703446;0.5195
25.76817667793014;0.51975
25.77523899815291;0.52
25.77560131136325;0.52025
25.774263617552634;0.5205
25.776325916712537;0.52075
25.778388208834453;0.521
25.77705049390986;0.52125
25.784112771930253;0.5215
25.782775042887103;0.52175
25.79143730677191;0.522
25.79349956357616;0.52225
25.80386181329135;0.5225
25.80592405590896;0.52275
25.81458629142049;0.523
25.81324851981743;0.52325
25.81861074109128;0.5235
25.817372955233537;0.52375
25.811035162235697;0.524
25.813097362089263;0.52425
25.810059554785727;0.5245
25.813821740316598;0.52475
25.809183918673376;0.525
25.807846089847562;0.52525
25.81490825383067;0.5255
25.815270410614197;0.52575
25.805632560189657;0.526
25.804294702548557;0.52625
25.776356837682407;0.5265
25.77671896558272;0.52675
25.752081086241006;0.527
25.75244319964878;0.52725
25.719405305797558;0.5275
25.71976740467886;0.52775
25.690129496284193;0.528
25.690491580605087;0.52825
25.682553657633054;0.5285
25.684615727359624;0.52875
25.676577789776314;0.529
25.67693984487465;0.52925
25.669001892646147;0.5295
25.67106393308235;0.52975
25.684725966174767;0.53
25.686787991914944;0.53025
25.7054500102944;0.5305
25.70411202130467;0.53075
25.724474024937283;0.531
25.72483602118378;0.53125
25.74189801003569;0.5315
25.74395999148455;0.53175
25.752621965521904;0.532
25.75468393213928;0.53225
25.761645891328225;0.5325
25.760407843080277;0.53275
25.75576978738698;0.533
25.756131724239882;0.53325
25.74809365363052;0.5335
25.74845557555044;0.53375
25.753817489991203;0.534
25.755879396944337;0.53425
25.76294129640141;0.5345
25.759903188353967;0.53475
25.766965072793553;0.535
25.76062694971173;0.53525
25.765988819100055;0.5355
25.76305068095008;0.53575
25.771712535253364;0.536
25.772074382001463;0.53625
25.787436221185935;0.5365
25.786198052798348;0.53675
25.791559876830263;0.537
25.78852169327324;0.53725
25.79388350211885;0.5375
25.79424530335865;0.53775
25.78960709698421;0.538
25.791668882987114;0.53825
25.788730661358905;0.5385
25.790692432091177;0.53875
25.794454195175497;0.539
25.79311595060343;0.53925
25.801777698366557;0.5395
25.798839438456458;0.53975
25.804201170864705;0.54
25.80126289558288;0.54025
25.80662461260256;0.5405
25.80528632191533;0.54075
25.81064802351277;0.541
25.80930971738647;0.54125
25.813071403528006;0.5415
25.81343308192897;0.54175
25.810394752580944;0.542
25.812456415475523;0.54225
25.807818070604295;0.5425
25.808179717958854;0.54275
25.795241357530788;0.543
25.795602989311693;0.54325
25.77256461329317;0.5435
25.772926229466805;0.54375
25.748287837824204;0.544
25.747049438356964;0.54425
25.72571103105668;0.5445
25.72607261591496;0.54475
25.709734192923406;0.545
25.70849576207362;0.54525
25.703857323357216;0.5455
25.704218876765783;0.54575
25.716180422290947;0.546
25.716541959924307;0.54625
25.730303489657473;0.5465
25.730665011482067;0.54675
25.749326525389687;0.547
25.751388031371963;0.54725
25.766749529420498;0.5475
25.765411019526915;0.54775
25.785772501682832;0.548
25.787833975879874;0.54825
25.804795442109647;0.5485
25.805156900363784;0.54875
25.812218350633906;0.549
25.812579792911635;0.54925
25.8179412271886;0.5495
25.815002653456432;0.54975
25.820364071706752;0.55
25.81902548193119;0.55025
25.814386884121387;0.5505
25.81474827826896;0.55075
25.820109664365557;0.551
25.8187710424028;0.55125
25.812532412372338;0.5515
25.8128937742658;0.55175
25.81825512807482;0.552
25.820216473791053;0.55225
25.81397781140613;0.5525
25.81433914091169;0.55275
25.799700462299388;0.553
25.798361775560863;0.55325
25.79202308068776;0.5535
25.794084377671727;0.55375
25.801145666504418;0.554
25.80150694717748;0.55425
25.805168219682564;0.5545
25.803829484011324;0.55475
25.812590740155407;0.555
25.811251988106484;0.55525
25.816613227856198;0.5555
25.815274459396214;0.55575
25.81903568271819;0.556
25.819396897813785;0.55625
25.82475810467466;0.5565
25.82511930329248;0.55675
25.822080493658916;0.557
25.82584167576562;0.55725
25.82280284960427;0.5575
25.821564015166533;0.55775
25.82692517244407;0.558
25.825586321428567;0.55825
25.822647462111686;0.5585
25.8213085944851;0.55875
25.826669718540487;0.559
25.823730834269522;0.55925
25.82069194166388;0.5595
25.822753040715256;0.55975
25.82641413141531;0.56
25.82347521375573;0.56025
25.830536287728197;0.5605
25.825897353324404;0.56075
25.829558410536027;0.561
25.828219459354756;0.56125
25.82698049977228;0.5615
25.82564153178029;0.56175
25.831002555370464;0.562
25.829663570534507;0.56225
25.826724577264113;0.5625
25.827085575550967;0.56275
25.832446565386775;0.563
25.831107546763224;0.56325
25.83486851967202;0.5635
25.833529484104858;0.56375
25.838890440053444;0.564
25.839251387509474;0.56425
25.83631232646466;0.5645
25.8382732569107;0.56475
25.843634178839302;0.565
25.842395092242175;0.56525
25.839355997111028;0.5655
25.84141689343757;0.56575
25.836777781213513;0.566
25.838838660430568;0.56625
25.83419953108045;0.5665
25.837860393154884;0.56675
25.88822124664557;0.567
25.891882091544232;0.56725
25.9806429278426;0.5675
25.98430375553238;0.56775
26.086364574605305;0.568
26.09332538505309;0.56825
26.21868618686747;0.5685
26.22574698004016;0.56875
26.406107764562893;0.569
26.424768540427404;0.56925
26.133529307625405;0.5695
26.10219006614864;0.56975
25.207550815988846;0.57
25.02961155713775;0.57025
25.626572289587088;0.5705
25.5436330133286;0.57075
26.598993728354014;0.571
26.602654434655083;0.57125
23.33971513222353;0.5715
23.273375821051125;0.57175
24.692136501129582;0.572
24.78409717245066;0.57225
26.069457835006105;0.5725
26.081518488787662;0.57275
26.403579133787076;0.573
26.412239769996102;0.57325
26.504300397406492;0.5735
26.51966101600999;0.57375
25.851621625798362;0.574
25.825382226763363;0.57425
25.607342818896733;0.5745
25.592703402190246;0.57475
25.684763976635658;0.575
25.693424542224722;0.57525
25.793785098949215;0.5755
25.79914564680088;0.57575
25.947906185771497;0.576
25.95326671585283;0.57625
26.06362723703664;0.5765
26.0672877493147;0.57675
26.154348252678783;0.577
26.158008747120654;0.57725
26.21836923263209;0.5775
26.237029709204858;0.57775
26.17909017683074;0.578
26.167750635501516;0.57825
25.648111085208956;0.5785
25.621871525944844;0.57875
25.303831957700957;0.579
25.30589238046908;0.57925
25.506252794240993;0.5795
25.51991319900849;0.57975
25.801973594763343;0.58
25.812333981497346;0.58025
25.994394359202293;0.5805
25.999754727869963;0.58075
26.058415087492158;0.581
26.063775438060667;0.58125
26.037435779567282;0.5815
26.034496112003804;0.58175
25.97155643536202;0.582
25.968516749633732;0.58225
25.908877054810752;0.5825
25.90923735088486;0.58275
25.88629763784787;0.583
25.888357915691582;0.58325
25.88371818440781;0.5835
25.88567844398835;0.58375
25.882738694425015;0.584
25.888098935709607;0.58425
25.883459167833944;0.5845
25.887119390789834;0.58475
25.890879604569093;0.585
25.88783980916353;0.58525
25.881600004564966;0.5855
25.886960190765212;0.58575
25.870620367756096;0.586
25.870980535529426;0.58625
25.854640694077034;0.5865
25.858400843390733;0.58675
25.840360983462357;0.587
25.839121114283724;0.58725
25.819481235846663;0.5875
25.819841348143;0.58775
25.808501451164567;0.588
25.807161544903195;0.58825
25.80252162935071;0.5885
25.80458170449895;0.58875
25.811641770339758;0.589
25.812001826864954;0.58925
25.827361874066384;0.5895
25.826021911935886;0.58975
25.8396819404653;0.59
25.84004195964647;0.59025
25.852101969471235;0.5905
25.852461969931444;0.59075
25.866121961018933;0.591
25.868181942725563;0.59125
25.88024191504317;0.5915
25.880601877963613;0.59175
25.887561831478738;0.592
25.886321775580402;0.59225
25.88998171026045;0.5925
25.888641635510744;0.59275
25.884001551323138;0.593
25.887761457689496;0.59325
25.879721354601667;0.5935
25.88348124205152;0.59375
25.875441120030917;0.594
25.87580098853172;0.59425
25.866160847545785;0.5945
25.866520697064995;0.59475
25.860280537081202;0.595
25.86064036758629;0.59525
25.849300188572112;0.5955
25.847960000030554;0.59575
25.828319801953484;0.596
25.827079594332776;0.59625
25.812439377160306;0.5965
25.812799150427953;0.59675
25.806458914127592;0.597
25.806818668251108;0.59725
25.797178412790373;0.5975
25.79753814773728;0.59775
25.80459787308371;0.598
25.803257588821552;0.59825
25.816917294942684;0.5985
25.817276991439005;0.59875
25.829336678302393;0.599
25.82969635552475;0.59925
25.846756023097957;0.5995
25.847115681013918;0.59975
25.85747532926452;0.6
25.85613496784167;0.60025
25.86979459673726;0.6005
25.868554215943185;0.60075
25.875513825451353;0.601
25.875873425253662;0.60125
25.872933015342017;0.6015
25.874992595708324;0.60175
25.878652166344487;0.602
25.877311727242418;0.60225
25.882671278394017;0.6025
25.8814308197912;0.60275
25.886790351425887;0.603
25.887149873289978;0.60325
25.89080938537539;0.6035
25.88786888767405;0.60375
25.88322838017786;0.604
25.883587862878752;0.60425
25.878947335768636;0.6045
25.88260679883944;0.60475
25.877966252083088;0.605
25.8783256954915;0.60525
25.875385129056603;0.6055
25.87404455277032;0.60575
25.879403966624594;0.606
25.878063370611336;0.60625
25.88342276472249;0.6065
25.880482148949987;0.60675
25.885841523285755;0.607
25.88620088772174;0.60725
25.88486024224987;0.6075
25.890219586862084;0.60775
25.88557892155033;0.608
25.885938246306544;0.60825
25.887997561122663;0.6085
25.888356865990637;0.60875
25.893716160902414;0.609
25.890775445849933;0.60925
25.894434720825153;0.6095
25.89149398582001;0.60975
25.895153240826463;0.61
25.892212485836463;0.61025
25.89587172084197;0.6105
25.89293094583493;0.61075
25.896590160807307;0.611
25.896949365751052;0.61125
25.895608560658122;0.6115
25.897667745520494;0.61175
25.89302692033011;0.612
25.89668608507895;0.61225
25.89374523975897;0.6125
25.897404384362144;0.61275
25.89116351888043;0.613
25.893122643305805;0.61325
25.886881757630235;0.6135
25.887240861845697;0.61375
25.884199955944162;0.614
25.884559039917605;0.61425
25.878318113758;0.6145
25.876977177457324;0.61475
25.88063623100756;0.615
25.877695274400693;0.61525
25.8813543076287;0.6155
25.881713330683564;0.61575
25.878772343557266;0.616
25.8841313462418;0.61625
25.877790338729152;0.6165
25.878149321011307;0.61675
25.881908293080258;0.617
25.878867254927997;0.61725
25.87422620654652;0.6175
25.874585147927817;0.61775
25.868344079063885;0.618
25.87200299994673;0.61825
25.869061910568334;0.6185
25.86942081092071;0.61875
25.876379700995866;0.619
25.87513858078579;0.61925
25.880497450282494;0.6195
25.880856309477984;0.61975
25.886215158364273;0.62
25.88487399693336;0.62025
25.896932825177263;0.6205
25.89729164308799;0.62075
25.91425045065755;0.621
25.914609247877973;0.62125
25.92996803474126;0.6215
25.928726811239436;0.62175
25.934085577364513;0.622
25.934444333108523;0.62225
25.928103078463472;0.6225
25.9284618134214;0.62275
25.922120537974326;0.623
25.92417925211427;0.62325
25.912837955833268;0.6235
25.911596649123343;0.62375
25.89855533197653;0.624
25.898914004384864;0.62425
25.892672666340363;0.6245
25.893031317835074;0.62475
25.889989958861037;0.625
25.89204858941028;0.62525
25.889107209474844;0.6255
25.892765819046772;0.62575
25.88642441811811;0.626
25.883483006680898;0.62625
25.890541584727174;0.6265
25.889200152248993;0.62675
25.9028587092384;0.627
25.901617255687444;0.62725
25.910275791588177;0.6275
25.910634316932647;0.62775
25.91599283171291;0.628
25.91465133592102;0.62825
25.918409829549038;0.6285
25.915368312589017;0.62875
25.91242678503302;0.629
25.9144852468731;0.62925
25.919843698101328;0.6295
25.921802138709765;0.62975
25.938860568690473;0.63
25.93921898803552;0.63025
25.951277396736977;0.6305
25.94993579478691;0.63075
25.95859418217739;0.631
25.96235255890049;0.63125
25.951010924948285;0.6315
25.94966928031285;0.63175
25.886727624986257;0.632
25.885385958960587;0.63225
25.792444282227923;0.6325
25.78780259478034;0.63275
25.70486089660993;0.633
25.690219187708763;0.63325
25.705577468068935;0.6335
25.70753573768253;0.63375
25.764593996541635;0.634
25.766652244638337;0.63425
25.84201048196474;0.6345
25.843968708512918;0.63475
25.891026924274975;0.635
25.894685129243005;0.63525
25.931743323409112;0.6355
25.93380150676538;0.63575
25.954159679303924;0.636
25.956117841016834;0.63625
25.951475991896217;0.6365
25.953534131934177;0.63675
25.958892261122823;0.637
25.955950379454258;0.63725
25.959608486920587;0.6375
25.95996658351393;0.63775
25.970324669226393;0.638
25.970682744050087;0.63825
25.976040807977128;0.6385
25.973098860999634;0.63875
25.976756903109724;0.639
25.97381493429951;0.63925
25.964172954561118;0.6395
25.964530963886666;0.63975
25.946488962268283;0.64
25.946846949698088;0.64025
25.915604926168204;0.6405
25.91426289167077;0.64075
25.879620846197906;0.641
25.87667878974175;0.64125
25.857036722294428;0.6415
25.858994643848074;0.64175
25.86775255439482;0.642
25.86471045392681;0.64225
25.88006834243618;0.6425
25.882126219915065;0.64275
25.897484086355615;0.643
25.89784194174996;0.64325
25.91319978609025;0.6435
25.91355761936863;0.64375
25.92561544157725;0.644
25.92427325270825;0.64425
25.93463105275379;0.6445
25.931688841706013;0.64475
25.94534661955707;0.645
25.944004386299124;0.64525
25.95276214192433;0.6455
25.954719886424837;0.64575
25.950077619792815;0.646
25.95213534202041;0.64625
25.940793053099785;0.6465
25.939550753023113;0.64675
25.92820844178256;0.647
25.928566119370277;0.64725
25.91892378577845;0.6475
25.922581440999227;0.64775
25.919639085024798;0.648
25.918296717847323;0.64825
25.92205433945898;0.6485
25.92071194985194;0.64875
25.924369549018383;0.649
25.924727136950484;0.64925
25.921784713640427;0.6495
25.92384227908039;0.64975
25.930799833262547;0.65
25.929557376179098;0.65025
25.93491490782222;0.6505
25.933572428184092;0.65075
25.94062993725692;0.651
25.942587435032877;0.65125
25.939644921504158;0.6515
25.941702396662965;0.65175
25.95035986050148;0.652
25.9474173130119;0.65225
25.959374754186435;0.6525
25.95813218401727;0.65275
25.966789602496608;0.653
25.965447009616657;0.65325
25.97250440536961;0.6535
25.972861789747682;0.65375
25.968219162743072;0.654
25.968576524347988;0.65425
25.958933874554642;0.6545
25.959291213355243;0.65475
25.952948540742003;0.655
25.955005856707135;0.65525
25.950363161242855;0.6555
25.950720454341376;0.65575
25.946077735994923;0.656
25.948135006195713;0.65625
25.94179226493596;0.6565
25.945449512207897;0.65675
25.939206748003738;0.657
25.942863972315717;0.65725
25.94992118513606;0.6575
25.94857838645699;0.65775
25.957235576270744;0.658
25.957592754569543;0.65825
25.96794992134563;0.6585
25.96670707659124;0.65875
25.975364220298598;0.659
25.975721352459953;0.65925
25.977778473067538;0.6595
25.978135582113595;0.65975
25.975092679590368;0.66
25.978849765490097;0.66025
25.974206839805028;0.6605
25.97456390252741;0.66075
25.966520953649486;0.661
25.966877993163514;0.66125
25.960635021061737;0.6615
25.96099203733641;0.66175
25.95794904197979;0.662
25.96000603498413;0.66225
25.963663016341684;0.6625
25.96401998604471;0.66275
25.961076944085477;0.663
25.96313389045624;0.66325
25.95849082514927;0.6635
25.962147748156816;0.66375
25.95920465947116;0.664
25.96116155908456;0.66425
25.964918446989284;0.6645
25.961875323177612;0.66475
25.96893218764181;0.665
25.96928904037415;0.66525
25.967945881366912;0.6655
25.970002710612373;0.66575
25.967059528102805;0.666
25.969016333830492;0.66625
25.962773127787717;0.6665
25.96312990996676;0.66675
25.968486680359906;0.667
25.96884343895944;0.66725
25.96580018575765;0.6675
25.966156920746826;0.66775
25.971513643919256;0.668
25.970270355267235;0.66825
25.965627054783056;0.6685
25.97098374245901;0.66875
25.9629404182874;0.669
25.966697082260517;0.66925
25.95865373437066;0.6695
25.960710374610137;0.66975
25.949367002971254;0.67
25.9497236194463;0.67025
25.955080224027594;0.6705
25.955436816707437;0.67075
25.962493397478138;0.671
25.962849966332005;0.67125
25.971506523261358;0.6715
25.971863068258504;0.67175
25.988919601315757;0.672
25.990976122425437;0.67225
26.06133263157986;0.6725
26.066689128771337;0.67275
26.158645613992206;0.673
26.16400208723478;0.67325
26.284358548491383;0.6735
26.289714997754338;0.67375
26.435071435015978;0.674
26.442127860268627;0.67425
26.617484273504616;0.6745
26.612840674716278;0.67475
26.119897063895944;0.675
26.08355344103595;0.67525
25.258909806128635;0.6755
25.24256615916633;0.67575
25.80962250014138;0.676
25.46997882904612;0.67625
26.843635145872902;0.6765
26.595691450614062;0.67675
23.651047743261948;0.677
23.9164040238089;0.67725
25.470060292247283;0.6775
25.553816548569433;0.67775
26.492472792767707;0.678
26.516129024834452;0.67825
26.899885244762032;0.6785
26.880241452542794;0.67875
26.110597648169104;0.679
26.097553831633313;0.67925
25.969610002927794;0.6795
25.981666162044895;0.67975
26.080322308976985;0.68
26.077378443716437;0.68025
26.042734566255604;0.6805
26.06969067658687;0.68075
26.128446774702592;0.681
26.13040286059515;0.68125
26.190758934256912;0.6815
26.194514995680258;0.68175
26.23317104485756;0.682
26.235227081781193;0.68225
26.253883106443546;0.6825
26.24923911883699;0.68275
25.98789511895391;0.683
25.973251106786698;0.68325
25.365307082327725;0.6835
25.34896304556939;0.68375
25.28771899650408;0.684
25.33967493512418;0.68425
25.616730861422084;0.6845
25.628786775390186;0.68475
25.864142677020883;0.685
25.872798566306564;0.68525
25.99815444323964;0.6855
26.003510307812498;0.68575
26.052166160017542;0.686
26.054221999847176;0.68625
26.06957782729381;0.6865
26.069933642349838;0.68675
26.080289445007676;0.687
26.078945235259727;0.68725
26.08430101309841;0.6875
26.084656778516123;0.68775
26.071712531505295;0.688
26.07206827205833;0.68825
26.05742400016765;0.6885
26.059479715825674;0.68875
26.05143541902482;0.689
26.055191109757505;0.68925
26.050546788016156;0.6895
26.050902453793203;0.68975
26.054558107081053;0.69
26.05661374787216;0.69025
26.05356937615893;0.6905
26.057324991933807;0.69075
26.054280595189223;0.691
26.0563361859176;0.69125
26.05169176411139;0.6915
26.055347329763013;0.69175
26.049102882864922;0.692
26.05105842340955;0.69225
26.043113951389337;0.6925
26.04516946679673;0.69275
26.038824969624173;0.693
26.037480459864113;0.69325
26.042835937508993;0.6935
26.03819140255127;0.69375
26.041946854983387;0.694
26.042302294797807;0.69425
26.035957721986975;0.6945
26.03801313654335;0.69475
26.033368538459385;0.695
26.033723927727547;0.69525
26.040679304340287;0.6955
26.037734668290078;0.69575
26.043090019569373;0.696
26.040145358170644;0.69625
26.043800684086357;0.6965
26.04245599730898;0.69675
26.037811297830977;0.697
26.03816658564483;0.69725
26.030221860743;0.6975
26.027277123117972;0.69775
26.032632372762215;0.698
26.03298760966821;0.69825
26.029942833828443;0.6985
26.03199804523538;0.69875
26.027353243881517;0.699
26.03270842975933;0.69925
26.02806360286131;0.6995
26.03011876317994;0.69975
26.02707391070771;0.7
26.03242904543711;0.70025
26.027784167360632;0.7005
26.03153927647077;0.70075
26.028494372760022;0.701
26.030549456220882;0.70125
26.025904526845846;0.7015
26.027959584627418;0.70175
26.024914629558094;0.702
26.026969661630385;0.70225
26.02402468083679;0.7025
26.024379687169816;0.70275
26.01973468062197;0.703
26.021689661185768;0.70325
26.015444628853714;0.7035
26.01909958361832;0.70375
26.014454525472104;0.704
26.01480945440758;0.70425
26.01846437041727;0.7045
26.015519273493684;0.70475
26.019174163629348;0.705
26.01622904081678;0.70525
26.01988390504851;0.7055
26.01693875631706;0.70575
26.020593594614958;0.706
26.01934841993473;0.70625
26.024703232268905;0.7065
26.02505803161002;0.70675
26.020412817950604;0.707
26.020767591283196;0.70725
26.02272235160033;0.7075
26.023077098894543;0.70775
26.021831833158373;0.708
26.022186554384362;0.70825
26.025841262565056;0.7085
26.024495957693002;0.70875
26.02825063976074;0.709
26.028605308760813;0.70925
26.033959964685785;0.7095
26.03591460752819;0.70975
26.031269237280597;0.71
26.03502385393555;0.71025
26.030378457485604;0.7105
26.03233304792332;0.71075
26.036087625241255;0.711
26.03474218943197;0.71125
26.04179674048803;0.7115
26.040451278401992;0.71175
26.044105803166424;0.712
26.042860314773893;0.71225
26.038214813216968;0.7125
26.03856929848822;0.71275
26.02552377058022;0.713
26.025878229485542;0.71325
26.006232675196753;0.7135
26.00498710770644;0.71375
25.98864152700718;0.714
25.99069593309155;0.71425
25.986050325952128;0.7145
25.9880047055815;0.71475
25.993359071972254;0.715
25.990413425116966;0.71525
25.98576776500823;0.7155
25.98942209163864;0.71575
25.99977640500078;0.716
26.000130705087248;0.71625
26.008884991890632;0.7165
26.01083926540353;0.71675
26.032893525618544;0.717
26.033247772528266;0.71725
26.045302006125294;0.7175
26.042256226402248;0.71775
26.04601043335171;0.718
26.0429646269663;0.71825
26.04001880723862;0.7185
26.040372974161276;0.71875
26.037427127726883;0.719
26.03608126792805;0.71925
26.03973539475739;0.7195
26.035089508207523;0.71975
26.03884360827106;0.72
26.037497694940622;0.72025
26.042851768208827;0.7205
26.043205828068302;0.72075
26.040259874511666;0.721
26.03891390753154;0.72125
26.049267927120553;0.7215
26.04462193327134;0.72175
26.053275925976525;0.722
26.05362990522874;0.72225
26.062383871020618;0.7225
26.06103782334479;0.72275
26.0596917621939;0.723
26.061745687560578;0.72325
26.053799599437465;0.7235
26.054153497817207;0.72375
26.04780738269244;0.724
26.048161254055817;0.72425
26.04181511189998;0.7245
26.04216895621757;0.72475
26.04752278700124;0.725
26.047876604243644;0.72525
26.053230407937434;0.7255
26.051984198075264;0.72575
26.058937974649783;0.726
26.059291737653655;0.72625
26.066345487079545;0.7265
26.066699222920096;0.72675
26.077052945167985;0.727
26.07740665381587;0.72725
26.089460348856424;0.7275
26.088114030282302;0.72775
26.09176769808618;0.728
26.092121352260726;0.72825
26.085874992798615;0.7285
26.08622861969252;0.72875
26.07818223293511;0.729
26.07853583251907;0.72925
26.083889418437078;0.7295
26.082642990681812;0.72975
26.079596549245945;0.73
26.078350094122175;0.73025
26.065303625303173;0.7305
26.064057142781643;0.73075
26.052710646550263;0.731
26.054764136601722;0.73125
26.046717612928713;0.7315
26.04547107552393;0.73175
26.05582452438007;0.732
26.057777959489826;0.73225
26.048131380845895;0.7325
26.048484788440984;0.73275
26.033838182267786;0.733
26.03419156231901;0.73325
26.02124492858736;0.7335
26.02159828106554;0.73375
26.015251619746255;0.734
26.015604944622226;0.73425
26.022658255686153;0.7345
26.023011552930758;0.73475
26.03506483634874;0.735
26.035418105932834;0.73525
26.02737136167575;0.7355
26.026124603570207;0.73575
26.02147783160893;0.736
26.02013104578463;0.73625
26.02378424609005;0.7365
26.0225374325179;0.73675
26.029490605060914;0.737
26.029843763711824;0.73725
26.02519690846336;0.7375
26.02725003930825;0.73775
26.030903156239233;0.738
26.031256259249044;0.73825
26.03660934833042;0.7385
26.0369624234761;0.73875
26.04571548467883;0.739
26.046068531931347;0.73925
26.05142156522639;0.7395
26.048374584556722;0.73975
26.055427589915077;0.74
26.05408058129421;0.74025
26.056133558686863;0.7405
26.056486522085798;0.74075
26.06183947148377;0.741
26.06219240687353;0.74125
26.064245328247836;0.7415
26.064598235599448;0.74175
26.069951128921126;0.742
26.068604008205636;0.74225
26.07065687344574;0.7425
26.069309724634202;0.74275
26.07466256176379;0.743
26.07331538482728;0.74325
26.068668193817427;0.7435
26.07242098872702;0.74375
26.076073769548827;0.744
26.074726536275623;0.74425
26.073479288900185;0.7445
26.077132027415292;0.74475
26.07248475181373;0.745
26.072837462088273;0.74525
26.06819015823171;0.7455
26.07184284023683;0.74575
26.063895508096415;0.746
26.067548161803256;0.74625
26.061300801350143;0.7465
26.06495342672987;0.74675
26.05860603793523;0.747
26.057358634959016;0.74725
26.064311217794035;0.7475
26.064663786433073;0.74775
26.070016340868943;0.748
26.070368881094435;0.74825
26.077421407102367;0.7485
26.077773918885534;0.74875
26.081426416436745;0.749
26.080178899748816;0.74925
26.08553136881455;0.7495
26.085883823626766;0.74975
26.082836264178273;0.75
26.08658869046189;0.75025
26.08024110247043;0.7505
26.18559350019672;0.75075
26.08424588363357;0.751
26.077998252773813;0.75125
26.079950607610268;0.7515
26.08370294813576;0.75175
26.085655274343118;0.752
26.081007586225176;0.75225
26.086359883774755;0.7525
26.090112166984696;0.75275
26.08876443584783;0.753
26.085816690356992;0.75325
26.087768930505025;0.7535
26.084821156284757;0.75375
26.08517336768904;0.754
26.082225564710715;0.75425
26.08417774734262;0.7545
26.0812299155776;0.75475
26.083282069408522;0.755
26.07863420882821;0.75525
26.08228633382953;0.7555
26.075938444405327;0.75575
26.079690540548462;0.756
26.07664262225179;0.75625
26.078694689508165;0.7565
26.08574674231045;0.75675
26.084398780651505;0.757
26.08975080452419;0.75725
26.091802813921372;0.7575
26.09715480883592;0.75775
26.0975067892607;0.758
26.101158755188578;0.75825
26.099810706612427;0.7585
26.096862643525128;0.75875
26.097214565919543;0.759
26.094266473788558;0.75925
26.092918367125044;0.7595
26.096570245921882;0.75975
26.093622110171957;0.76
26.088973959868145;0.76025
26.091025795003347;0.7605
26.086377615570427;0.76075
26.08672942156229;0.761
26.09038121297182;0.76125
26.089032989791914;0.7615
26.086084752015456;0.76175
26.089736499635343;0.762
26.08678823264448;0.76225
26.088839951035755;0.7625
26.097491654802074;0.76275
26.097843343936336;0.763
26.104895018431442;0.76325
26.105246678280306;0.7635
26.11219832347583;0.76375
26.112549954010916;0.764
26.119601569878483;0.76425
26.11995317107144;0.7645
26.117004757582702;0.76475
26.120656329405183;0.765
26.1160078865318;0.76525
26.114659428955466;0.7655
26.120010956669113;0.76575
26.118762469665654;0.766
26.174113967938016;0.76625
26.17946545147912;0.7665
26.259816920281907;0.76675
26.26176837433929;0.767
26.370519813644208;0.76725
26.37587123818959;0.7675
26.504522647968372;0.76775
26.511574042973493;0.768
26.703525423197878;0.76825
26.708876788634484;0.7685
26.320928139276234;0.76875
26.286279475116086;0.769
25.41663079614697;0.76925
25.335282102361845;0.7695
26.202333393753648;0.76975
25.970984670315335;0.77
26.628035932039857;0.77025
26.521687178920164;0.7705
23.543738410949214;0.77075
23.707389628119955;0.771
25.18274083042536;0.77125
25.26309201785837;0.7715
26.08514319041196;0.77175
25.905494348079085;0.772
26.320845490852715;0.77225
26.332896618725815;0.7725
26.449847731691357;0.77275
26.448598829742306;0.773
26.417249912871632;0.77325
26.41590098107231;0.7735
26.389652034337313;0.77375
26.388303072659625;0.774
26.33195409603222;0.77425
26.334005104448078;0.7745
26.307656097900182;0.77475
26.306407076381515;0.775
26.281758039885062;0.77525
26.282108988403806;0.7755
26.250759921930744;0.77575
26.24941084045886;0.776
26.206461743981155;0.77625
26.20351263249061;0.7765
26.15386350598023;0.77675
26.154214364443007;0.777
26.144565207871945;0.77725
26.14991603626004;0.7775
26.158566849600298;0.77775
26.157217647885723;0.778
26.16096843110932;0.77825
26.161319199264096;0.7785
26.171669952343066;0.77875
26.168620690339228;0.779
26.17067141324561;0.77925
26.169322121055217;0.7795
26.156372813761067;0.77975
26.16002349135618;0.78
26.145374153833576;0.78025
26.145724801186276;0.7805
26.137775433407302;0.78075
26.13812605048968;0.781
26.141776652426437;0.78125
26.1405272392106;0.7815
26.135877810835193;0.78175
26.13782836729326;0.782
26.13487890857783;0.78225
26.13522943468194;0.7825
26.14727994559862;0.78275
26.145930441320917;0.783
26.156280921841862;0.78325
26.15493138715451;0.7835
26.161981837251894;0.78375
26.162332272127067;0.784
26.16938269177307;0.78425
26.168033096182956;0.7845
26.165083485349776;0.78475
26.16703385926658;0.785
26.162384217926427;0.78525
26.167734561322366;0.7855
26.159784889447458;0.78575
26.16343520229477;0.786
26.157185499857352;0.78625
26.157535782128274;0.7865
26.149486049100602;0.78675
26.148236300767397;0.787
26.155186537121725;0.78725
26.153936758156668;0.7875
26.16588696386529;0.78775
26.164637154240662;0.788
26.178287329275857;0.78825
26.17863748896396;0.7885
26.190687633298054;0.78875
26.192637762271207;0.789
26.211387875876504;0.78925
26.211737974107034;0.7895
26.238688056955876;0.78975
26.24073812441613;0.79
26.284388176480864;0.79025
26.28643821314319;0.7905
26.366788234396193;0.79075
26.372138240232957;0.791
26.490788230646594;0.79125
26.486138205630194;0.7915
25.74488816517686;0.79175
25.736838109279688;0.792
25.700588037931787;0.79225
25.740937951126256;0.7925
25.94628784885621;0.79275
25.951637731114747;0.793
26.06358759789498;0.79325
26.07063744919003;0.7935
26.210987284993003;0.79375
26.214637105297008;0.794
26.306686910095177;0.79425
26.310336699380617;0.7945
26.377386473146455;0.79475
26.37943623138581;0.795
26.429785974091807;0.79525
26.43013570125757;0.7955
26.198785412876227;0.79575
26.18413510894091;0.796
25.607784789444754;0.79625
25.59153445438088;0.7965
25.52848410374243;0.79675
25.57553373752254;0.797
25.852583355714348;0.79725
25.864532958311;0.7975
26.116582545305622;0.79775
26.123632116691372;0.798
26.25728167246139;0.79825
26.260931212608817;0.7985
26.307980737126815;0.79875
26.313330246008523;0.799
26.303679739247098;0.79925
26.30402921683569;0.7995
26.284378678767464;0.79975
26.283028125035568;0.8
26.256777555633164;0.80025
26.255426970553412;0.8005
26.222476369789476;0.80075
26.259425753334526;0.801
26.224775121181715;0.80125
26.223524473324222;0.8015
26.165473809755213;0.80175
26.167523130467863;0.802
26.15957243545534;0.80225
26.159921724710824;0.8025
26.165270998227484;0.80275
26.163920255998505;0.803
26.16756949801707;0.80325
26.16791872427636;0.8035
26.16326793476955;0.80375
26.165317129489836;0.804
26.170666308430405;0.80425
26.17101547158444;0.8045
26.179664618945132;0.80475
26.180013750505676;0.805
26.185362866259265;0.80525
26.184111966199104;0.8055
26.189461050318386;0.80575
26.191410118610303;0.806
26.18675917106806;0.80625
26.190508207684868;0.8065
26.207457228453922;0.80675
26.20620623336844;0.807
26.224855222421624;0.80725
26.225204195606686;0.8075
26.235553152916836;0.80775
26.23590209434529;0.808
26.224551019885265;0.80825
26.224899929529972;0.8085
26.21024882327264;0.80875
26.20899770110648;0.809
26.189346563024724;0.80925
26.187995409020594;0.8095
26.16664423908731;0.80975
26.16699305321811;0.81
26.154041851406216;0.81025
26.156090633644865;0.8105
26.15303939992729;0.81075
26.15338815024672;0.811
26.150436884596402;0.81125
26.15248560296957;0.8115
26.149434305359463;0.81175
26.149782991759324;0.812
26.1451316621624;0.81225
26.14388031656193;0.8125
26.139228954951175;0.81275
26.13787757732337;0.813
26.133226183671773;0.81325
26.130274773989644;0.8135
26.135623348270222;0.81375
26.132571906506776;0.814
26.129620448692563;0.81425
26.133268974820844;0.8145
26.14031748488487;0.81475
26.140665978877916;0.815
26.13271445679325;0.81525
26.134662918624127;0.8155
26.141711364363825;0.81575
26.140359794005615;0.816
26.13740820754277;0.81625
26.139456604968558;0.8165
26.16140498627626;0.81675
26.161753351459158;0.817
26.183801700510525;0.81725
26.185850033423648;0.8175
26.201198350191806;0.81775
26.201546650808282;0.818
26.213494935266375;0.81825
26.215543203559367;0.8185
26.220891455680544;0.81875
26.221239691623204;0.819
26.224887911380637;0.81925
26.223636114946146;0.8195
26.22728430231302;0.81975
26.224332473474565;0.82
26.229680628424084;0.82025
26.22662876715487;0.8205
26.23697688966024;0.82075
26.239024995933494;0.821
26.24607308596794;0.82125
26.246421159756892;0.8215
26.22836921729366;0.82175
26.228717258571564;0.822
26.214065283583913;0.82225
26.214413292324025;0.8225
26.199761284785218;0.82275
26.200109260960815;0.823
26.192157220844138;0.82325
26.189205164428518;0.8235
26.196153091707277;0.82375
26.19650100267374;0.824
26.205248897321244;0.82425
26.20559677564312;0.8245
26.21424463763269;0.82475
26.216292483283308;0.825
26.231640312588294;0.82525
26.231988125540997;0.8255
26.235635922134765;0.82575
26.235983702362926;0.826
26.231331466218826;0.82625
26.23337921369582;0.8265
26.22702694478726;0.82675
26.22567465948648;0.827
26.21272235778684;0.82725
26.213070039681696;0.8275
26.1917177051644;0.82775
26.192065354228312;0.828
26.179112986866787;0.82825
26.177760603073192;0.8285
26.171508202840887;0.82875
26.17345578616323;0.829
26.167203353033592;0.82925
26.16915090344535;0.8295
26.16449843739186;0.82975
26.1648459548665;0.83
26.17019345586264;0.83025
26.170540940373666;0.8305
26.179288408392942;0.83075
26.179635859913855;0.831
26.18828329492978;0.83125
26.188630713434105;0.8315
26.195678115420215;0.83175
26.196025500881486;0.832
26.18797286981132;0.83225
26.186720222203096;0.8325
26.173667558050212;0.83275
26.172414877346057;0.833
26.164362180084034;0.83325
26.16470946625753;0.8335
26.171756735859947;0.83375
26.16880398888469;0.834
26.17745122532516;0.83425
26.177798445174762;0.8345
26.196445648426895;0.83475
26.196792835074973;0.835
26.208840005112403;0.83525
26.207487158532604;0.8355
26.212834295328985;0.83575
26.213181415494958;0.836
26.210228519023943;0.83625
26.20727560590936;0.8365
26.210922676144627;0.83675
26.206269729723168;0.837
26.213316766638407;0.83725
26.211963786883768;0.8375
26.21731079045269;0.83775
26.217657777338587;0.838
26.2113047475349;0.83825
26.21165170103506;0.8385
26.1953986378325;0.83875
26.195745557920663;0.839
26.18939246129299;0.83925
26.18973934794291;0.8395
26.19338621786388;0.83975
26.193733071049326;0.84
26.19907990749271;0.84025
26.201126727187475;0.8405
26.199773530127075;0.84075
26.198520316304954;0.841
26.203867085714574;0.84125
26.19921383834938;0.8415
26.19116057420284;0.84175
26.19150729326841;0.842
26.181853995539544;0.84225
26.18560068100971;0.8425
26.180947349672373;0.84275
26.181294001521003;0.843
26.179940636549066;0.84325
26.181987254750023;0.8435
26.19063385611736;0.84375
26.19098044064454;0.844
26.19962700832504;0.84425
26.198373559152348;0.8445
26.20702009311993;0.84475
26.20736661022127;0.845
26.211013110449862;0.84525
26.211359593799177;0.8455
26.206706060262704;0.84575
26.208752509833936;0.846
26.21409894250636;0.84625
26.214445358273473;0.8465
26.218091757128764;0.84675
26.21513813906573;0.847
26.220484504077863;0.84725
26.220830852158674;0.8475
26.226177183301658;0.84775
26.223223497500317;0.848
26.228569794748157;0.84825
26.22891607503869;0.8485
26.234262338365422;0.84875
26.232908584721855;0.849
26.23995481410151;0.84925
26.238601026497896;0.8495
26.245647221904534;0.84975
26.24429340031494;0.85
26.247939561722635;0.85025
26.246685706121138;0.8505
26.253631833503977;0.85075
26.248977943864666;0.851
26.226024037196748;0.85125
26.22307011349374;0.8515
26.198416172749177;0.85175
26.198762214956588;0.852
26.18740824010952;0.85225
26.187754248201493;0.8525
26.18140023922605;0.85275
26.181746213176737;0.853
26.178792170047092;0.85325
26.18083810983066;0.8535
26.189484032520983;0.85375
26.189829938111615;0.854
26.193475826596092;0.85425
26.192221697967984;0.8545
26.18916755222083;0.85475
26.18951338934819;0.855
26.19655920934362;0.85525
26.195205012200674;0.8555
26.203950797912913;0.85575
26.20089656647391;0.856
26.207942317877222;0.85625
26.204988052116413;0.8565
26.210333769185052;0.85675
26.207279469076706;0.857
26.21262515178496;0.85725
26.21137081730337;0.8575
26.215016465625517;0.85775
26.215362096744983;0.858
26.219007710655337;0.85825
26.221053307350168;0.8585
26.218098886823057;0.85875
26.22004444906759;0.859
26.22538999407735;0.85925
26.225735521845927;0.8595
26.221081032366914;0.85975
26.224826525633894;0.86
26.228472001640466;0.86025
26.23211746038023;0.8605
26.227462901846774;0.86075
26.23280832603371;0.861
26.229853732934625;0.86125
26.235199122543133;0.8615
26.230544494852836;0.86175
26.229189849857338;0.862
26.234535187550254;0.86225
26.236580507925183;0.8625
26.23362581097575;0.86275
26.233971096695562;0.863
26.237616365078235;0.86325
26.23466161611739;0.8635
26.245006849806643;0.86375
26.24695206613962;0.864
26.317297265109946;0.86425
26.32104244671124;0.8645
26.409687610937134;0.86475
26.413332757781255;0.865
26.525377887237237;0.86525
26.53072299929871;0.8655
26.666068093959314;0.86575
26.674713171212677;0.866
26.841758231052438;0.86625
26.83380327347225;0.8665
26.35574829846574;0.86675
26.319493306026562;0.867
25.458138296148363;0.86725
25.426783268824778;0.8675
26.335528224049472;0.86775
26.047473161816086;0.868
26.912818082118275;0.86825
26.7398629849497;0.8685
23.891907870304017;0.86875
24.150552738174884;0.869
25.63919758855596;0.86925
25.719542421440906;0.8695
26.469887236823393;0.86975
26.295232034697083;0.87
26.58727681505565;0.87025
26.595921577892756;0.8705
26.63466632320208;0.87075
26.608311050977292;0.871
26.52195576121207;0.87125
26.51900045390009;0.8715
26.44764512903504;0.87175
26.44468978661059;0.872
26.360034426620427;0.87225
26.35867904905824;0.8725
26.329023653917712;0.87275
26.327768241192537;0.873
26.344712810876402;0.87325
26.346757362963;0.8735
26.36710189744603;0.87375
26.367446414319183;0.874
26.377790913576163;0.87425
26.371435395210664;0.8745
26.358479859216395;0.87475
26.357124305587057;0.875
26.32246873431636;0.87525
26.321213145397998;0.8755
26.2715575388257;0.87575
26.270201914593166;0.876
26.24884627269411;0.87625
26.247590613122252;0.8765
26.25793493587131;0.87675
26.258279240935;0.877
26.286923528307042;0.87725
26.28896779798116;0.8775
26.309312049951085;0.87775
26.312956284210536;0.878
26.30830050075324;0.87825
26.308644699572934;0.8785
26.293988880663353;0.87875
26.292633044018224;0.879
26.224677189631283;0.87925
26.22172131749628;0.8795
26.125365427606933;0.87975
26.119009519957007;0.88
26.031053594540236;0.88025
26.02969765135036;0.8805
26.01674169038114;0.88075
26.02538571162631;0.881
26.075729715079635;0.88125
26.079473700734862;0.8815
26.134817668585747;0.88175
26.13846161862605;0.882
26.192105550849526;0.88225
26.19584946524993;0.8825
26.226193361821036;0.88275
26.226537240556606;0.883
26.2584811014504;0.88325
26.260524944496193;0.8835
26.27256876968776;0.88375
26.27451257701886;0.884
26.26985636648328;0.88425
26.273600138074784;0.8845
26.28394389178716;0.88475
26.282587627614184;0.885
26.291231345549633;0.88525
26.288275045587298;0.8855
26.301918727720963;0.88575
26.300662391944417;0.886
26.31600603825144;0.88625
26.317949666635833;0.8865
26.334993277091385;0.88675
26.335336869611893;0.887
26.347380444191156;0.88725
26.347724000822968;0.8875
26.35136753950113;0.88775
26.350011060219448;0.888
26.357054562971722;0.88825
26.354098047751762;0.8885
26.36274151455338;0.88875
26.366384963370383;0.889
26.361728394196575;0.88925
26.36207180702578;0.8895
26.354115201851812;0.88975
26.356158578668488;0.89
26.36310193746963;0.89025
26.36344527824906;0.8905
26.380488601000593;0.89075
26.380831905718065;0.891
26.401175192395296;0.89125
26.40151846102612;0.8915
26.45186171160437;0.89175
26.45550494412387;0.892
26.535848158578464;0.89225
26.542891354961988;0.8925
26.686534533268276;0.89275
26.688577693491172;0.893
25.98222083562452;0.89325
25.974263959662164;0.8935
25.914607065597952;0.89375
25.948250153425725;0.894
26.171993223139342;0.89425
26.178936274732646;0.8945
26.279279308199506;0.89475
26.286322323533764;0.895
26.421665320729282;0.89525
26.425308299779925;0.8955
26.512351260679548;0.89575
26.51599420342202;0.896
26.568037128001205;0.89625
26.570080034410964;0.8965
26.60542292264518;0.89675
26.607365792697713;0.897
26.41110864456244;0.89725
26.39145147823324;0.8975
25.806794293703984;0.89775
25.785437090968554;0.898
25.657479870020833;0.89825
25.6794226308547;0.8985
25.943165373464044;0.89875
25.953508097842747;0.899
26.2121508039847;0.89925
26.219193491883797;0.8995
26.362836161533924;0.89975
26.366478812928978;0.9
26.42352144606286;0.90025
26.423864060929464;0.9005
26.43590665752269;0.90075
26.432849235836446;0.901
26.416591795864623;0.90125
26.41693433760114;0.9015
26.387276861039897;0.90175
26.38591936617481;0.902
26.352961852999787;0.90225
26.384904321508742;0.9025
26.346946771695592;0.90275
26.342289203554255;0.903
26.272631617078645;0.90325
26.272974012262694;0.9035
26.25331638910031;0.90375
26.255358747585436;0.904
26.24900108771198;0.90425
26.25264340947389;0.9045
26.247985712865088;0.90475
26.250027997879506;0.905
26.24707026451108;0.90525
26.245712512753748;0.9055
26.25435474260145;0.90575
26.25469695404812;0.906
26.265039147087712;0.90625
26.263781321714163;0.9065
26.272423477921418;0.90675
26.272765615703427;0.907
26.288107735054144;0.90725
26.28674983596752;0.9075
26.298791918437505;0.90775
26.29913398245806;0.908
26.31277602802314;0.90825
26.313118055126704;0.9085
26.333460063762722;0.90875
26.33380205392515;0.909
26.345844025607953;0.90925
26.3478859788051;0.9095
26.343227913510567;0.90975
26.345169829718323;0.91
26.33721172742234;0.91025
26.339253606616587;0.9105
26.327895467295054;0.91075
26.331537309451708;0.911
26.335279133080547;0.91125
26.333920938175535;0.9115
26.33756272473067;0.91175
26.33460449273993;0.912
26.341646242197314;0.91225
26.340287973096807;0.9125
26.343929685432403;0.91275
26.3426713791981;0.913
26.334613054387887;0.91325
26.334954710995774;0.9135
26.323696349015755;0.91375
26.32403796844183;0.914
26.31267956926801;0.91425
26.311321151488297;0.9145
26.305062715096703;0.91475
26.305404260087233;0.915
26.299045786453902;0.91525
26.301087294190733;0.9155
26.29302878329173;0.91575
26.298370253750917;0.916
26.292111705562313;0.91625
26.294053138719946;0.9165
26.291094553217825;0.91675
26.293135949049994;0.917
26.296777326210467;0.91725
26.29711868469328;0.9175
26.294160024492466;0.91775
26.294501345602058;0.918
26.29814264801609;0.91825
26.298483931728597;0.9185
26.31212519673363;0.91875
26.31246644302522;0.919
26.32120767059741;0.91925
26.32314887944425;0.9195
26.32689006955979;0.91975
26.328831240938076;0.92
26.32257239357316;0.92025
26.321213527459093;0.9205
26.311554642589932;0.92075
26.311895738959738;0.921
26.305536816562565;0.92125
26.309277875392475;0.9215
26.30461891544353;0.92175
26.3065599367098;0.922
26.30030093918535;0.92225
26.300641922864248;0.9225
26.31098288774056;0.92275
26.31132383380837;0.923
26.319964761061744;0.92325
26.320305669494765;0.9235
26.3373465591015;0.92375
26.33768742987605;0.924
26.344628281812472;0.92425
26.341669114904878;0.9245
26.337009929147335;0.92475
26.342350724533933;0.925
26.337691501058774;0.92525
26.341332258715944;0.9255
26.33837299749953;0.92575
26.338713717403643;0.926
26.344054418422367;0.92625
26.342695100549815;0.9265
26.348035763780075;0.92675
26.34677640810727;0.927
26.350417033525492;0.92725
26.345757640028854;0.9275
26.329398227611463;0.92775
26.32813879626743;0.928
26.30847934599088;0.92825
26.30711987677592;0.9285
26.285760388616666;0.92875
26.28780088150724;0.929
26.26814135544177;0.92925
26.26848181041437;0.9295
26.25552224641918;0.92975
26.254162663450316;0.93
26.257803061501907;0.93025
26.259843440568087;0.9305
26.276883800642995;0.93075
26.28052414172076;0.931
26.310864463795525;0.93125
26.31120476686143;0.9315
26.33324505091261;0.93175
26.33358531594321;0.932
26.343925561947376;0.93225
26.345865788919262;0.9325
26.352905996853018;0.93275
26.354946185742783;0.933
26.35028635558272;0.93325
26.350626506366986;0.9335
26.355966638089726;0.93375
26.352906750745113;0.934
26.356646844327308;0.93425
26.35698691883046;0.9345
26.35392697424875;0.93475
26.355967010576336;0.935
26.351307027807394;0.93525
26.354947025936088;0.9355
26.351987004956595;0.93575
26.35562696486309;0.936
26.352666905649752;0.93625
26.354706827310757;0.9365
26.358346729840285;0.93675
26.355386613232522;0.937
26.360726477481652;0.93725
26.356066322581864;0.9375
26.36140614852734;0.93775
26.36174595531228;0.938
26.358685742930877;0.93825
26.362425511377317;0.9385
26.3560652606458;0.93875
26.356404990730532;0.939
26.338444701625704;0.93925
26.34038439332552;0.9395
26.330724065824196;0.93975
26.334463719115927;0.94
26.326403353194927;0.94025
26.3317429680554;0.9405
26.327082563691576;0.94075
26.32742214009765;0.941
26.33276169726785;0.94125
26.333101235196388;0.9415
26.345140753877487;0.94175
26.345480253305375;0.942
26.35751973347427;0.94225
26.3578591943784;0.9425
26.361498636011998;0.94275
26.358538058369284;0.943
26.360477461444503;0.94325
26.355816845231885;0.9435
26.362856209725667;0.94375
26.364895554920082;0.944
26.37023488080938;0.94425
26.370574187387792;0.9445
26.375913474649572;0.94475
26.372852742588965;0.945
26.36319199120022;0.94525
26.36353122047758;0.9455
26.35727043041531;0.94575
26.35590962100765;0.946
26.36294879224887;0.94625
26.361587944133216;0.9465
26.366927076654964;0.94675
26.36896618980836;0.947
26.375905283587674;0.94725
26.376244357987176;0.9475
26.38158341300113;0.94775
26.380322448623815;0.948
26.3856614648495;0.94825
26.38760046167245;0.9485
26.384639439086943;0.94875
26.38667839708727;0.949
26.367017335667697;0.94925
26.365656254822518;0.9495
26.349295154546013;0.94975
26.356334034832464;0.95
26.419972895676167;0.95025
26.423711737071404;0.9505
26.50735055901248;0.95075
26.512689361493667;0.951
26.61802814450929;0.95125
26.621666908053623;0.9515
26.78040565212098;0.95175
26.789044376705657;0.952
26.90268308180196;0.95225
26.8630217674042;0.9525
26.22006043350668;0.95275
26.18539908010371;0.953
25.509037707189606;0.95325
25.51277631475868;0.9535
26.24811490280524;0.95375
26.081753471323626;0.954
27.18039202030814;0.95425
26.517430549753108;0.9545
23.871069059652857;0.95475
24.398107550001715;0.955
25.973446020794;0.95525
26.032084472024057;0.9555
26.629122903686213;0.95575
26.646161315774794;0.956
26.811499708284142;0.95625
26.808438081208603;0.9565
26.733776434542506;0.95675
26.730814768280197;0.957
26.644453082416025;0.95725
26.64319137694433;0.9575
26.565129651859465;0.95775
26.560467907155783;0.958
26.492506142827626;0.95825
26.491144358869356;0.9585
26.461482555275325;0.95875
26.460220732039893;0.959
26.453858889157424;0.95925
26.457497026622285;0.9595
26.452835144428825;0.95975
26.456573242571427;0.96
26.448511321044442;0.96025
26.448849379842255;0.9605
26.430887418959234;0.96075
26.42952543838975;0.961
26.391563438128184;0.96125
26.390201418168918;0.9615
26.34053937850632;0.96175
26.337577319134784;0.962
26.30461524004869;0.96225
26.303253141242426;0.9625
26.295291022710376;0.96275
26.295628884446938;0.963
26.305966726446503;0.96325
26.306304548703462;0.9635
26.323242351212215;0.96375
26.321980133967156;0.964
26.33391789696269;0.96425
26.334255640193216;0.9645
26.342993363653147;0.96475
26.343331067336877;0.965
26.356968751238828;0.96525
26.357306415353403;0.9655
26.362644059675013;0.96575
26.35968168419808;0.966
26.365019288917015;0.96625
26.365356873826236;0.9665
26.370694438920168;0.96675
26.369331984193234;0.967
26.376369509639858;0.96725
26.371707015254465;0.9675
26.378644501031488;0.96775
26.377381966965352;0.968
26.387719413050494;0.96825
26.38635683928135;0.9685
26.394994245652352;0.96875
26.393731632157944;0.969
26.40066899879257;0.96925
26.401006345550663;0.9695
26.404743672426676;0.96975
26.40338097941505;0.97
26.400418266510243;0.97025
26.399055533706697;0.9705
26.404392780998872;0.97075
26.40143000838122;0.971
26.4067672158482;0.97125
26.405404403394265;0.9715
26.415741571013882;0.97175
26.41277871870152;0.972
26.416415846451635;0.97225
26.415052954258698;0.9725
26.42039004211718;0.97275
26.41572711002155;0.973
26.41946415796628;0.97325
26.419801185945847;0.9735
26.413438193954732;0.97375
26.415475181987407;0.974
26.40741215003837;0.97425
26.406149098102077;0.9745
26.394786026173037;0.97475
26.39512293424573;0.975
26.385459822314647;0.97525
26.387496690374277;0.9755
26.379433538419118;0.97575
26.38147036644366;0.976
26.378507174442408;0.97625
26.380443962409856;0.9765
26.37748073034051;0.97675
26.38111747822887;0.977
26.376454206069447;0.97725
26.380190913856744;0.9775
26.377127601585272;0.97775
26.379164269249546;0.978
26.374500916844077;0.97825
26.374837544363384;0.9785
26.38187415180198;0.97875
26.382210739154388;0.979
26.397547306415138;0.97925
26.397883853578744;0.9795
26.411520380639736;0.97975
26.411856887592645;0.98
26.42049337443199;0.98025
26.419229841152323;0.9805
26.424566287748164;0.98075
26.42320271421405;0.981
26.420239120544526;0.98125
26.422175506734128;0.9815
26.412511872777397;0.98175
26.412848218668884;0.982
26.406584544403135;0.98225
26.406920849974696;0.9825
26.398857135378115;0.98275
26.402593400607948;0.983
26.399529645658752;0.98325
26.39986587052508;0.9835
26.395202075201492;0.98375
26.393938259682553;0.984
26.399274423962822;0.98425
26.396210568036864;0.9845
26.40324669189925;0.98475
26.39858279554454;0.985
26.405618878967317;0.98525
26.40425494216215;0.9855
26.409590985123614;0.98575
26.406627007846282;0.986
26.410263010324734;0.98625
26.41229899255356;0.9865
26.40763495452734;0.98675
26.409570896240652;0.987
26.403306817688094;0.98725
26.405242718864248;0.9875
26.39557859976371;0.98775
26.39591446038107;0.988
26.386250300710927;0.98825
26.384986120747882;0.9885
26.375321920486535;0.98875
26.377257699921476;0.989
26.370993459047323;0.98925
26.37292919785867;0.9895
26.376664916350133;0.98975
26.377000614516323;0.99
26.37233629235185;0.99025
26.374271949851327;0.9905
26.389607587009365;0.99075
26.389943203820597;0.991
26.403678800279632;0.99125
26.400614376381096;0.9915
26.40934993211962;0.99175
26.407985467489812;0.992
26.41832098248632;0.99225
26.41535647710377;0.9925
26.425691951336784;0.99275
26.426027405180008;0.993
26.432962838628075;0.99325
26.431698251675627;0.9935
26.427033644317298;0.99375
26.42736901654774;0.994
26.43270436836159;0.99425
26.4346396997535;0.9945
26.453375010718123;0.99475
26.453710301250098;0.995
26.480645571344088;0.99525
26.480980820994745;0.9955
26.508016050196733;0.99575
26.5100512589447;0.996
26.520386447233317;0.99625
26.51902161505724;0.9965
26.524356762411145;0.99675
26.524691889289688;0.997
26.533326995687542;0.99725
26.533662081599388;0.9975
26.55069714701989;0.99775
26.55433219194373;0.998
26.621367216365577;0.99825
26.62500222028012;0.9985
26.75033720368204;0.99875
26.832372166566024;0.999
26.332707108926748;0.99925
26.301342030758907;0.9995
26.071676932057187;0.99975
26.04201181281629;1.0
26.180746673030907;1.00025
26.194381512695728;1.0005
26.343016331805455;1.00075
26.530051130354796;1.001
26.350385908338442;1.00125
26.497420665751104;1.0015
26.504355402587493;1.00175
26.61639011884231;1.002
26.620024814510273;1.00225
26.69705948958609;1.0025
26.700694144064475;1.00275
26.751028777940153;1.003
26.76306339120783;1.00325
26.723397983862245;1.0035
26.71703255589811;1.00375
26.229067107310158;1.004
26.194401638093108;1.00425
25.779736148241692;1.0045
25.775070637750645;1.00475
25.912105106614703;1.005
25.924039554828592;1.00525
26.199373982387062;1.0055
26.209708389284838;1.00575
26.40674277551668;1.006
26.412077141077326;1.00625
26.505711485961513;1.0065
26.509445810164;1.00675
26.546380113679533;1.007
26.546714396502864;1.00725
26.55544865862875;1.0075
26.554082900051945;1.00775
26.56611712076721;1.008
26.569751320769306;1.00825
26.565085500052998;1.0085
26.560419658613046;1.00875
26.60745379644422;1.009
26.604387913541284;1.00925
26.526422009899015;1.0095
26.531756085512185;1.00975
26.52539014037557;1.01
26.525724174483948;1.01025
26.524458187832096;1.0105
26.524792180414792;1.01075
26.513426152226828;1.011
26.512060103262982;1.01125
26.49239403351805;1.0115
26.492727942986818;1.01175
26.469761831664073;1.012
26.468395699544615;1.01225
26.458729546623246;1.0125
26.462463372894753;1.01275
26.471097178353933;1.013
26.4714309629956;1.01325
26.47676472681456;1.0135
26.47539846980561;1.01375
26.47913219196356;1.014
26.47776589328323;1.01425
26.44479957375942;1.0145
26.441733233386955;1.01475
26.36376687216064;1.015
26.35910049007531;1.01525
26.266134087125774;1.0155
26.263067663306863;1.01575
26.225101218613393;1.016
26.225434753040197;1.01625
26.265768266582114;1.0165
26.269401759233958;1.01675
26.346435230990572;1.017
26.35006868184679;1.01725
26.432102111797455;1.0175
26.434135520837394;1.01775
26.496068908961462;1.018
26.498102276164502;1.01825
26.530135622441346;1.0185
26.53206894778686;1.01875
26.542402252195892;1.019
26.544435535663283;1.01925
26.539768798183896;1.0195
26.541802039752586;1.01975
26.537135260364213;1.02
26.53746846001363;1.02025
26.53610163869571;1.0205
26.536434796405313;1.02075
26.540067933137315;1.021
26.540401048886572;1.02125
26.537434143647957;1.0215
26.539467217416355;1.02175
26.53480027018663;1.022
26.53513330195366;1.02225
26.525466312712332;1.0225
26.527399302457525;1.02275
26.51613227118412;1.023
26.518065218887003;1.02325
26.505098145561067;1.0235
26.507131051201196;1.02375
26.499063935802283;1.024
26.501096799359225;1.02425
26.49142964186692;1.0245
26.49176246332026;1.02475
26.48379526371415;1.025
26.485728043043498;1.02525
26.476060801303202;1.0255
26.479793538488167;1.02575
26.471726254593303;1.026
26.475458949613532;1.02625
26.46739162354375;1.0265
26.469424276378884;1.02675
26.46305690811385;1.027
26.463389518743565;1.02725
26.45712210826295;1.0275
26.457454676666927;1.02775
26.43938722395043;1.028
26.439719750108377;1.02825
26.43505225513571;1.0285
26.433784739027345;1.02875
26.44071720177823;1.029
26.439449643383295;1.02925
26.444782063837483;1.0295
26.443414463135728;1.02975
26.445446841272975;1.03
26.445779198244175;1.03025
26.449411534044263;1.0305
26.449743848668195;1.03075
26.44677614211092;1.031
26.4487084143674;1.03125
26.454040665432576;1.0315
26.454372895301415;1.03175
26.459705103968872;1.032
26.458437291429913;1.03225
26.463769457679497;1.0325
26.464101602712592;1.03275
26.467733726524166;1.033
26.466365829109186;1.03325
26.47169791046263;1.0335
26.470429970579467;1.03375
26.467362009454675;1.034
26.467694027083233;1.03425
26.461426023460117;1.0345
26.460057998580318;1.03475
26.46368995243882;1.035
26.4590218850306;1.03525
26.464353796350657;1.0355
26.461385686393974;1.03575
26.468417555155558;1.036
26.463749402630388;1.03625
26.467381228813466;1.0365
26.4694130336998;1.03675
26.464744817284384;1.037
26.463376579562222;1.03725
26.470408320528325;1.0375
26.46734004017769;1.03775
26.472671738505344;1.038
26.47140341550628;1.03825
26.47833507117553;1.0385
26.480366705508093;1.03875
26.475698318499003;1.039
26.477729910143275;1.03925
26.473061480435927;1.0395
26.476693029371994;1.03975
26.465324556946488;1.04
26.470656063154454;1.04025
26.462687547990917;1.0405
26.46471901145091;1.04075
26.46005045352947;1.041
26.46038187422163;1.04125
26.45571327352243;1.0415
26.459344651426925;1.04175
26.454676007930136;1.042
26.456707343027126;1.04225
26.462038656712945;1.0425
26.458969948982627;1.04275
26.47100121983124;1.043
26.471332469253834;1.04325
26.476663697245463;1.0435
26.475294903801192;1.04375
26.472326088916073;1.044
26.472657252585176;1.04425
26.47628839480356;1.0445
26.4750195155663;1.04475
26.481950614868463;1.045
26.48228169270512;1.04525
26.476012749071334;1.0455
26.476343783962196;1.04575
26.46497479737278;1.046
26.465305789298164;1.04625
26.468936759733428;1.0465
26.46766770867366;1.04675
26.476298636113942;1.047
26.474929542049374;1.04725
26.485260426475033;1.0475
26.48559128938602;1.04775
26.49432213077742;1.048
26.49465295064434;1.04825
26.504983748981882;1.0485
26.506914525785138;1.04875
26.522245281049212;1.049
26.524276014769214;1.04925
26.53960672694025;1.0495
26.539937417557432;1.04975
26.555268086615865;1.05
26.55229873411067;1.05025
26.559229360036962;1.0505
26.55625996438986;1.05075
26.549890547164477;1.051
26.551921108355945;1.05125
26.547251647959385;1.0515
26.545882165969925;1.05175
26.556212662382688;1.052
26.556543137192815;1.05225
26.55357359039543;1.0525
26.557204021985676;1.05275
26.544234431958685;1.053
26.5445648203096;1.05325
26.52819518703356;1.0535
26.52692553212571;1.05375
26.523855855581193;1.054
26.52418615739516;1.05425
26.517916437562768;1.0545
26.516546696079157;1.05475
26.506876932939488;1.055
26.50550714813892;1.05525
26.502537341672607;1.0555
26.502867513535715;1.05575
26.4814976637234;1.056
26.48022779223083;1.05625
26.43885789905318;1.0565
26.42748798418561;1.05675
26.43951804762329;1.057
26.441548089361405;1.05725
26.538478109395122;1.0575
26.542208107719624;1.05775
26.660838084330084;1.058
26.66616803922169;1.05825
26.801497972389626;1.0585
26.80852788382908;1.05875
26.965457773535235;1.059
26.97418764150329;1.05925
27.119517487728427;1.0595
27.104847312205848;1.05975
26.53847711493076;1.06
26.500506895898347;1.06025
25.72243665510381;1.0605
25.71616639254237;1.06075
26.411496108209217;1.061
26.11342580209956;1.06125
27.147155474208613;1.0615
26.83248512453159;1.06175
23.797814753063705;1.062
24.359744359800175;1.06225
26.10507394473621;1.0625
26.173803507867042;1.06275
26.727433049187887;1.063
26.729462568693975;1.06325
26.876392066380532;1.0635
26.891721542242788;1.06375
26.85875099627597;1.064
26.855780428475317;1.06425
26.777709838836063;1.0645
26.774739227353443;1.06475
26.705068594022702;1.065
26.700397938839078;1.06525
26.635727261797822;1.0655
26.632756562894176;1.06575
26.603085842123384;1.066
26.603415099480703;1.06625
26.59204433496139;1.0665
26.59407354856069;1.06675
26.58270274027387;1.067
26.583031910096185;1.06725
26.573361058022893;1.0675
26.57539018404926;1.06775
26.569019288170562;1.068
26.569348370382052;1.06825
26.564677430679012;1.0685
26.565006469056705;1.06875
26.557035485510408;1.069
26.557364480035403;1.06925
26.540993452626967;1.0695
26.54132240328038;1.06975
26.529951331990915;1.07
26.52868023875388;1.07025
26.510609123564542;1.0705
26.5093379864182;1.07075
26.501266827310147;1.071
26.50159564623567;1.07125
26.488624443190066;1.0715
26.48725321816864;1.07175
26.484281971166684;1.072
26.484610702179513;1.07225
26.489939411202418;1.0725
26.486968098230715;1.07275
26.482296763259704;1.073
26.482625406284708;1.07325
26.476254027301028;1.0735
26.474882626303987;1.07375
26.478611203288903;1.074
26.475539758251095;1.07425
26.48086829118588;1.0745
26.47619680208859;1.07475
26.491525290954545;1.075
26.491853757779076;1.07525
26.503882202557516;1.0755
26.502510625285193;1.07575
26.509539025957448;1.076
26.511567404569607;1.07625
26.516895761117016;1.0765
26.517224095595022;1.07675
26.515852407998963;1.077
26.51618069832418;1.07725
26.511508966566034;1.0775
26.51513721271986;1.07775
26.518865436781017;1.078
26.519193638744863;1.07825
26.514521818606752;1.0785
26.514849976362036;1.07875
26.520178112006082;1.079
26.517106225534256;1.07925
26.52243431694192;1.0795
26.522762386224436;1.07975
26.524790433377184;1.08
26.525118458395525;1.08025
26.528746461274842;1.0805
26.527474442010508;1.08075
26.534402400597898;1.081
26.53313033703239;1.08125
26.538458251309375;1.0815
26.535386143424237;1.08175
26.544114013372354;1.082
26.54444186114912;1.08225
26.54806968674993;1.0825
26.548397490170178;1.08275
26.557025271405244;1.083
26.555753030450543;1.08325
26.552680767301467;1.0835
26.553008481953423;1.08375
26.548336174401808;1.084
26.548663844642036;1.08425
26.545691492669512;1.0845
26.54771911847964;1.08475
26.544646722067846;1.085
26.549974303429536;1.08525
26.54530186256013;1.0855
26.550629399455048;1.08575
26.54595691410971;1.086
26.546284406519536;1.08625
26.550011876679957;1.0865
26.548639324586404;1.08675
26.553966750234306;1.087
26.555994153619086;1.08725
26.564621534736187;1.0875
26.56324889358104;1.08775
26.573576230149097;1.088
26.57390354443578;1.08825
26.580930836436547;1.0885
26.579558106146838;1.08875
26.584885353562097;1.089
26.583612578677783;1.08925
26.58893978148934;1.0895
26.589266961992227;1.08975
26.584594120181897;1.09
26.584921256053814;1.09025
26.57684836960343;1.0905
26.57557546082621;1.09075
26.569202529717625;1.091
26.571229576273137;1.09125
26.566556600488216;1.0915
26.570183602358334;1.09175
26.567210581878967;1.092
26.572537539045587;1.09225
26.564464473853675;1.0925
26.56649138629871;1.09275
26.558518276376173;1.093
26.562145144081555;1.09325
26.555771989410328;1.0935
26.557798812357998;1.09375
26.551425612920053;1.094
26.551752391091973;1.09425
26.54547914686927;1.0945
26.545805880247435;1.09475
26.53273259122196;1.095
26.53305927978836;1.09525
26.521785945942135;1.0955
26.523712589678784;1.09575
26.519039210993828;1.096
26.52276580988277;1.09625
26.529692386341118;1.0965
26.5300189403644;1.09675
26.54204547194813;1.097
26.542371981087815;1.09725
26.547698467778993;1.0975
26.54802493201718;1.09775
26.560051373797904;1.098
26.56037779311669;1.09825
26.565704189969072;1.0985
26.56603056435058;1.09875
26.561356916256756;1.099
26.56168324568312;1.09925
26.555309552625236;1.0995
26.553935837078622;1.09975
26.55096209903883;1.1
26.55128833850141;1.10025
26.56161455546191;1.1005
26.561940749915877;1.10075
26.568966921858856;1.101
26.569293071286417;1.10125
26.566219198194105;1.1015
26.57154530257748;1.10175
26.588571384432107;1.102
26.590597443753555;1.10225
26.632523480537373;1.1025
26.63454949477914;1.10275
26.678175486474423;1.103
26.6819014556188;1.10325
26.74882740220783;1.1035
26.752553326237106;1.10375
26.861179227702202;1.104
26.95980510659869;1.10425
26.56853096292216;1.1045
26.5188567966682;1.10475
26.212482607832392;1.105
26.18950839641033;1.10525
26.2948341623976;1.1055
26.305159905789797;1.10575
26.473785626582526;1.106
26.477411324771374;1.10625
26.621137000351947;1.1065
26.628062653319844;1.10675
26.748388283670675;1.107
26.752113891400043;1.10725
26.840739476503565;1.1075
26.84436503897684;1.10775
26.88969057881549;1.108
26.91001609601513;1.10825
26.890341590571378;1.1085
26.885667062479854;1.10875
26.495992511736176;1.109
26.464717938335973;1.10925
25.983343342274875;1.1095
25.971968723548503;1.10975
26.07569408215249;1.11
26.08761941808248;1.11025
26.374644731334097;1.1105
26.386670021902983;1.11075
26.591995289784776;1.111
26.598920534975125;1.11125
26.69764575746966;1.1115
26.697970957264047;1.11175
26.72159613435392;1.112
26.72192128873493;1.11225
26.708946420402743;1.1125
26.709271529353003;1.11275
26.68789661558137;1.113
26.688221679083508;1.11325
26.661846719855077;1.1135
26.648871737891735;1.11375
26.682496733189158;1.114
26.68622170574301;1.11425
26.609846655548957;1.1145
26.60517158260268;1.11475
26.597196486899858;1.115
26.597521368436155;1.11525
26.60444622720726;1.1155
26.604771063208847;1.11575
26.608495876436617;1.116
26.607120666886235;1.11625
26.604145434553402;1.1165
26.606070179433807;1.11675
26.59639490152314;1.117
26.600119600817102;1.11725
